.813888888888889
.8111111111111111
.7888888888888888
.791666666666667
.7888888888888892
.8166666666666664
1.6472222222222221
.8444444444444441
.8111111111111109
.7888888888888896
.7722222222222221
.8388888888888886
.8555555555555561
.8222222222222229
.8277777777777775
.8222222222222211
.7944444444444461
.7972222222222207
.7916666666666679
.8222222222222229
.8694444444444436
.8222222222222229
.7861111111111114
.7916666666666643
.7750000000000021
.7861111111111114
.81111111111111
.8166666666666664
.8277777777777793
.844444444444445
.8055555555555536
.7750000000000021
.7999999999999972
.7888888888888914
.8583333333333307
.8416666666666686
.8249999999999993
.8027777777777771
.8361111111111121
.7916666666666643
.7888888888888914
.8194444444444429
.8444444444444485
.8805555555555529
.8222222222222229
.7777777777777786
.8027777777777771
.81111111111111
.7972222222222243
.8361111111111086
.8305555555555557
.8250000000000028
.81111111111111
.7888888888888914
.7805555555555515
.8083333333333371
.8416666666666615
.8333333333333357
.8305555555555557
.8055555555555571
.7777777777777786
.7972222222222172
.7805555555555586
.7916666666666643
.8555555555555543
.8472222222222285
.8222222222222157
.7833333333333385
.7861111111111114
.7861111111111114
.8166666666666629
.81111111111111
.8500000000000014
.8333333333333357
.81111111111111
.7833333333333314
.7722222222222257
.7861111111111114
.8027777777777771
.8416666666666686
.8250000000000028
.8111111111111029
.7777777777777857
.7999999999999972
.7888888888888914
.7999999999999972
.8166666666666629
.8583333333333343
.8305555555555628
.7861111111111114
.7833333333333314
.7916666666666572
.8305555555555628
.8250000000000028
.8305555555555486
.8305555555555628
.8222222222222229
.7972222222222172
.7777777777777715
.7944444444444514
.8138888888888829
.8583333333333343
.8472222222222285
.8111111111111029
.7944444444444514
.7861111111111114
.7972222222222172
.8111111111111171
.8250000000000028
.8472222222222143
.8527777777777743
.8083333333333371
.7666666666666657
.7999999999999972
.8027777777777771
.8166666666666771
.8361111111111086
.8194444444444429
.8277777777777828
.7972222222222172
.7805555555555515
.7777777777777857
.8138888888888829
.8222222222222229
.8638888888888943
.8305555555555486
.7888888888888914
.7861111111111114
.8027777777777771
.7916666666666714
.8194444444444429
.8305555555555486
.8388888888888886
.8194444444444571
.7722222222222115
.75277777777778
.7944444444444514
.8194444444444429
.8138888888888829
.8361111111111086
.8222222222222229
.7833333333333314
.7444444444444542
.8305555555555486
.7805555555555657
.8305555555555486
.8638888888888943
.8222222222222229
.8027777777777771
.7777777777777715
.7861111111111114
.7999999999999972
.7972222222222314
.8138888888888829
.8472222222222285
.8249999999999886
.7750000000000199
.7611111111110915
.7805555555555657
.7722222222222115
.825000000000017
.8277777777777544
.7972222222222456
.7861111111110972
.7888888888888914
.7777777777777715
.76111111111112
.7861111111110972
.8194444444444571
.8472222222222285
.8083333333333371
.7694444444444457
.7777777777777715
.7916666666666572
.7861111111111256
.7972222222222172
.8194444444444287
.8194444444444571
.8055555555555429
.7722222222222399
.7750000000000057
.7722222222222115
.8055555555555429
.8111111111111313
.8222222222222229
.799999999999983
.7694444444444457
.7777777777777715
.7750000000000057
.7833333333333314
.7861111111111256
.8305555555555486
.8194444444444571
.7833333333333314
.7527777777777658
.7722222222222115
.7833333333333599
.7916666666666572
.8111111111111029
.8277777777777828
.8277777777777828
.8027777777777771
.7694444444444457
.7694444444444457
.799999999999983
.8194444444444571
.8361111111111086
.8388888888889028
.799999999999983
.7944444444444514
.8027777777777771
.7861111111110972
.7888888888888914
.8333333333333428
.8472222222222285
.8388888888888744
.7888888888888914
.7583333333333258
.7972222222222456
.8055555555555429
.8138888888888971
.8194444444444287
.8277777777777828
.8055555555555713
.794444444444423
.7777777777777999
.7694444444444457
.8249999999999886
1.4611111111111086
.8444444444444343
.8166666666666913
.7749999999999773
.8194444444444571
.8111111111111029
.8111111111111029
.8472222222222285
.8666666666666742
.8138888888888971
.7694444444444457
.7888888888888914
.794444444444423
.8277777777777828
.8305555555555486
.830555555555577
.8499999999999943
.8138888888888971
.7749999999999773
.7944444444444514
.8194444444444571
.8416666666666686
.8611111111110858
.8333333333333428
.7916666666666572
.7972222222222456
.7888888888888914
1.5694444444444287
.8333333333333428
.8388888888888744
.830555555555577
.7833333333333314
.75
.8027777777777771
.8111111111111029
.8249999999999886
.8083333333333371
.825000000000017
.799999999999983
.7916666666666856
.7666666666666515
.7944444444444514
.8416666666666686
.8388888888888744
.830555555555577
.8138888888888687
.7916666666666856
.788888888888863
.7972222222222456
.8083333333333371
.8333333333333144
.8472222222222285
.8361111111111086
.8083333333333371
.7833333333333314
.7861111111110972
.8388888888889028
.8583333333333201
.8444444444444628
.8388888888888744
.8361111111111086
.8138888888888971
.7694444444444457
.8055555555555713
.8361111111111086
.8527777777777601
.8388888888889028
.8305555555555486
.7916666666666572
.8000000000000114
.8027777777777771
.8083333333333371
.8277777777777828
.8444444444444343
.8361111111111086
.7944444444444514
.7833333333333314
.7916666666666572
.8277777777777828
.8444444444444343
.8194444444444571
.8472222222222285
.8083333333333371
.7777777777777715
.7916666666666572
.8111111111111313
.8194444444444571
.86388888888888
.8388888888888459
.8000000000000114
.8055555555555429
.7722222222222399
.8138888888889255
.827777777777726
.841666666666697
.8388888888889028
.8555555555555543
.7972222222222172
.7722222222221831
.7750000000000341
.8222222222221944
.8444444444444912
.827777777777726
.8222222222222513
.8111111111111313
.8111111111110745
.7777777777777715
.7805555555555657
.8194444444444571
.8277777777777828
1.52222222222224
.7999999999999545
.7722222222222399
.7916666666666856
.8055555555555429
.8055555555555429
.8111111111111313
.8000000000000114
.8138888888888687
.783333333333303
.7694444444444457
.7805555555555657
.8249999999999886
.8277777777777828
.8194444444444571
.8249999999999886
.7888888888888914
.7916666666666856
.8000000000000114
.8027777777777487
.8333333333333712
.8555555555555543
.8305555555555202
.7944444444444798
.783333333333303
.7694444444444457
.8166666666666629
.8249999999999886
.8194444444444571
.8249999999999886
.8361111111111086
.7861111111111541
.7583333333333258
.7972222222222172
.794444444444423
.8444444444444343
.8277777777777828
.830555555555577
.8055555555555429
.7805555555555657
.7777777777777715
.7944444444444798
.827777777777726
.8250000000000455
.8472222222222285
.8055555555555429
.7805555555555657
.7805555555555088
.8000000000000114
.8111111111111313
.794444444444423
.8000000000000114
.7888888888888914
.7777777777777715
.7416666666666742
.7444444444444684
.7472222222222058
.7916666666666856
.7916666666666288
.7916666666666856
.76111111111112
.7805555555555657
.7555555555555316
.7722222222222399
.7749999999999773
.7888888888888914
.8444444444444343
.8444444444444343
.8166666666666629
.7833333333333599
.794444444444423
.830555555555577
.8333333333333144
.8722222222222626
.8611111111110858
.8444444444444343
.7916666666666856
.7805555555555657
.8055555555555429
.8055555555555429
.8333333333333144
.8611111111111427
.8444444444444343
.7555555555555316
.7916666666666856
.7944444444444798
.7444444444444116
.7916666666666856
.8194444444444571
.8138888888888687
.7722222222222399
.7694444444444457
.7583333333333258
.75
.7749999999999773
.8000000000000114
.8055555555555429
.8027777777778056
1.474999999999966
.7638888888889142
.7222222222222285
.7555555555555316
.8027777777778056
.7749999999999773
.7194444444444343
.7250000000000227
.6944444444444571
.6944444444444002
.7083333333333712
.7027777777777828
.7166666666666401
.7416666666666742
.7527777777777942
.7194444444444343
.6888888888888687
.705555555555577
.6916666666666629
.7166666666666401
.7555555555555884
.7527777777777374
.7333333333333485
.73888888888888
.76111111111112
.7027777777777828
.7027777777777828
.7250000000000227
.7666666666666515
.7805555555555657
.8027777777777487
.7777777777777715
.7472222222222626
.7527777777777374
.7750000000000341
.7777777777777715
.7749999999999773
.8222222222222513
.8166666666666629
.8055555555555429
.7666666666666515
.7666666666667084
.7749999999999773
.8055555555555429
.8138888888889255
.8249999999999886
.783333333333303
.7527777777777942
.7527777777777942
.7249999999999659
.7194444444444912
.7333333333332916
.7555555555555884
.7444444444444116
.7305555555555543
.7083333333333712
.6944444444444002
.6972222222222513
.7194444444444343
.7250000000000227
.7527777777777374
.7638888888889142
.7749999999999773
.75
.73888888888888
.7083333333333712
.7444444444444116
.7638888888889142
.8111111111111313
.7666666666666515
.7694444444444457
.7638888888888573
.7416666666666742
.7416666666666742
.7333333333333485
.76111111111112
.7749999999999773
.8000000000000114
.7888888888888914
.7777777777777715
.7277777777777601
.7583333333333258
.7555555555555884
.76111111111112
.7583333333333258
.7916666666666288
.8138888888889255
.76111111111112
.7305555555555543
.7583333333333258
.7527777777777942
.794444444444423
.8194444444444571
.783333333333303
.7722222222222399
.7527777777777942
.7694444444444457
.7527777777777374
.7444444444444684
.783333333333303
.8250000000000455
.7694444444444457
.7416666666666174
.7305555555556111
.702777777777726
.716666666666697
.7277777777777601
.7277777777778169
.7361111111110858
.7361111111110858
.7583333333333826
.7111111111111086
.669444444444423
.6777777777777487
.6972222222222513
.705555555555577
.7194444444444343
.7305555555555543
.7194444444444343
.6861111111111313
.6888888888888687
.6944444444444571
.6916666666666629
.6805555555555429
.7361111111110858
.7527777777777942
.7583333333333258
.7361111111111427
.7277777777777601
.716666666666697
.7472222222222058
.7416666666666742
.75
.7861111111110972
.7749999999999773
.75
.7222222222222285
.7083333333333712
.702777777777726
.7138888888889028
.7666666666667084
.7472222222222058
.7472222222222058
.7527777777777942
.75
.7222222222222285
.75
.7527777777777374
.7750000000000341
.8138888888888687
.8333333333333144
.8055555555555998
.7638888888888573
.7777777777777715
.7722222222222399
.8166666666666629
.8166666666666629
1.6083333333333485
.8249999999999886
.7805555555555657
.7472222222222058
.7722222222222399
.783333333333303
.8194444444444571
.8083333333333371
.7888888888888914
.7722222222222399
.7722222222222399
.7472222222222058
.7638888888888573
.7944444444444798
.794444444444423
.8333333333333144
.7916666666666856
.7472222222222058
.7444444444444684
.7833333333333599
.7527777777777374
.7694444444444457
.7583333333333258
.7638888888889142
.76111111111112
.7277777777777601
.7138888888889028
.7277777777777601
.7305555555555543
.7666666666666515
.7527777777777942
.76111111111112
.7361111111110858
.7083333333333712
.7249999999999659
.7277777777778169
.7194444444444343
.7555555555555316
.7972222222222172
.8000000000000114
.7583333333333258
.7472222222222626
.7527777777777374
.7555555555555884
.7916666666666288
.8166666666666629
.841666666666697
.8138888888888687
.8055555555555998
.7999999999999545
.7888888888888914
.7777777777778283
.8249999999999318
.8833333333333258
.8583333333333485
.808333333333394
.8027777777776919
.8000000000000682
.7944444444444798
.7944444444443661
.8194444444444571
.8527777777777601
.8388888888889596
.783333333333303
.7777777777777146
.7972222222223309
.816666666666606
.8472222222221717
.8305555555556339
.8361111111111086
.8083333333332803
.8111111111111313
.7861111111111541
.7749999999999773
.841666666666697
.8444444444444343
.816666666666606
.7972222222222172
.7888888888888914
.7694444444445026
.7777777777777146
.808333333333394
.7972222222222172
.8138888888888687
.8166666666667197
.7999999999999545
.75
.7638888888889142
.7694444444443889
.8055555555555429
.8111111111111313
.7972222222222172
.7916666666667425
.783333333333303
.7527777777777374
.7361111111110858
.7611111111111768
.7777777777777146
.7972222222222172
.7888888888888914
.7722222222222399
.7388888888889369
.7638888888889142
.7416666666666742
.7583333333333258
.7777777777777146
.7749999999999773
.7722222222222399
.7611111111111768
.724999999999909
.7250000000000227
.7555555555555884
.7638888888889142
.783333333333303
.7944444444444798
.7944444444443661
.7583333333333258
.7777777777778283
.7722222222222399
.7638888888889142
.7777777777777146
.8444444444444343
.8361111111111086
.7722222222222399
.7749999999999773
.7555555555555884
.7749999999999773
.7694444444445026
.7944444444443661
.808333333333394
.841666666666697
.7777777777777146
.7583333333333258
.752777777777851
.7611111111110631
.7722222222222399
.8111111111111313
.8083333333332803
.8055555555555429
.7861111111111541
.7722222222222399
.7638888888889142
.7666666666666515
.7749999999999773
.8055555555555429
.8250000000000455
.7694444444443889
.7611111111110631
.7638888888889142
.7805555555555657
.7444444444444116
.7777777777778283
.7999999999999545
.7972222222222172
.7888888888888914
.7583333333333258
.7416666666666742
.7638888888889142
.7861111111111541
.7972222222222172
.8083333333332803
.8055555555555429
.775000000000091
.7777777777777146
.7722222222222399
.7749999999999773
.7694444444445026
.8277777777777828
.816666666666606
.7972222222222172
.7472222222222626
.7611111111110631
.7861111111111541
.7888888888888914
.7916666666666288
.8138888888888687
.8333333333333712
.7944444444444798
.7638888888889142
.7638888888888005
.7694444444445026
.7694444444443889
.8166666666667197
.8083333333332803
.7916666666667425
.7666666666666515
.7777777777777146
.7666666666666515
.7333333333333485
.7805555555555657
.8138888888888687
.8166666666667197
.7777777777778283
.7694444444443889
.7527777777777374
.7805555555555657
.7555555555555884
.7694444444445026
.8055555555555429
.7805555555555657
.7861111111110404
.7638888888889142
.7583333333333258
.7305555555556111
.7722222222221262
.8111111111111313
.7944444444444798
.783333333333303
.7888888888888914
.7666666666666515
.7722222222222399
.7527777777777374
.7666666666667652
.8249999999999318
.8305555555555202
.7805555555555657
.7638888888889142
.7694444444445026
.747222222222149
.7583333333333258
.7888888888888914
.7916666666667425
.7972222222222172
.7972222222222172
.7666666666666515
.7333333333333485
.747222222222149
.7638888888889142
.8055555555555429
.8277777777777828
.7805555555555657
.7777777777778283
.783333333333303
.7611111111110631
.7305555555556111
.7722222222222399
.8055555555555429
.7999999999999545
.7972222222222172
.7583333333333258
.7416666666666742
.7611111111111768
.7583333333333258
.7666666666666515
.7888888888888914
.7749999999999773
.75
.7638888888889142
.7444444444444116
.7111111111111086
.7027777777777828
.75
.7416666666666742
.7194444444444343
.7194444444444343
.7194444444444343
.6861111111111313
.7027777777777828
.7111111111111086
.7083333333333712
.7361111111110858
.7861111111111541
.75
.7444444444444116
.7083333333333712
.7277777777777601
.747222222222149
.7666666666667652
.7611111111110631
.7972222222222172
.8194444444444571
.7999999999999545
.7388888888889369
.7444444444444116
.7583333333333258
.7638888888889142
.7861111111111541
.7944444444443661
.8111111111111313
.7777777777778283
.7638888888889142
.7583333333333258
.783333333333303
.7916666666666288
.7916666666667425
.8333333333332575
.8388888888889596
.780555555555452
.7472222222222626
.7888888888888914
.808333333333394
.8305555555555202
.7888888888888914
.8083333333332803
.8250000000000455
.7916666666666288
.7472222222222626
.7555555555555884
.8416666666665833
.8500000000000227
.7749999999999773
.7861111111111541
.7916666666666288
.8027777777778056
.7444444444444116
.7694444444445026
.7999999999999545
.8250000000000455
.783333333333303
.7527777777777374
.7111111111111086
.7222222222222854
.7000000000000455
.7194444444444343
.7444444444444116
.7638888888889142
.724999999999909
.75
.7361111111111995
.7166666666665833
.6972222222223081
.7416666666666742
.7777777777777146
.7916666666667425
.7583333333333258
.7722222222221262
.7583333333333258
.7638888888889142
.7583333333333258
.7583333333333258
.8000000000000682
.8083333333332803
.8055555555555429
.7944444444444798
.783333333333303
.7583333333333258
.8055555555556566
.8111111111110176
.8250000000000455
.8222222222221944
.808333333333394
.8055555555555429
.7972222222222172
.7888888888888914
.7666666666666515
.8444444444444343
.8305555555555202
.7833333333334167
.7888888888888914
.7749999999999773
.7749999999999773
.783333333333303
.7916666666667425
.8083333333332803
.8250000000000455
.8138888888888687
.7527777777777374
.7583333333333258
.7666666666666515
.7944444444444798
.8222222222221944
.8111111111111313
.8027777777778056
.8500000000000227
.7888888888888914
.7527777777777374
.7805555555555657
.8111111111111313
.8249999999999318
.8222222222223081
.8111111111110176
.775000000000091
.7555555555554747
.7444444444445253
.7722222222221262
.7944444444444798
.7805555555555657
.7999999999999545
.8277777777777828
.7944444444444798
.7250000000000227
.7611111111110631
.8000000000000682
.8527777777777601
.8222222222221944
.7888888888888914
.7888888888888914
1.488888888888937
.8083333333332803
.8388888888889596
.8416666666665833
.8222222222221944
.8111111111111313
.7777777777778283
.7583333333333258
.7694444444443889
.7805555555555657
.8000000000000682
.8194444444444571
.8138888888888687
.7861111111110404
.7555555555555884
.7555555555555884
.7638888888889142
.7972222222222172
.8194444444444571
.8055555555555429
.8055555555555429
.7861111111110404
.7611111111111768
.7666666666666515
.7694444444443889
.8000000000000682
.8388888888888459
.8388888888889596
.8027777777776919
.7805555555555657
.7805555555555657
.7944444444444798
.7888888888888914
.8249999999999318
.8166666666667197
.8444444444444343
.7944444444444798
.7805555555555657
.7638888888888005
.8222222222223081
.8277777777777828
.8027777777776919
.8166666666667197
.8083333333332803
.7916666666667425
.7722222222222399
.7749999999999773
.7999999999999545
.8361111111111086
.8305555555556339
.7916666666666288
.7916666666666288
.7666666666666515
.7916666666667425
.7749999999999773
.8222222222221944
.8222222222221944
.8500000000000227
.8111111111111313
.7722222222222399
.7777777777777146
.7805555555555657
.8000000000000682
.816666666666606
.8388888888889596
.8138888888888687
.8138888888888687
.7944444444444798
.7694444444443889
.7583333333333258
.8194444444444571
.8583333333333485
.8388888888888459
.7722222222222399
.75
.7888888888888914
.7972222222222172
.783333333333303
.7888888888888914
.8250000000000455
.841666666666697
.8138888888888687
.7305555555554974
.75
.8111111111111313
.8222222222223081
.7722222222221262
.7888888888888914
.8000000000000682
.7944444444443661
1.4944444444445253
.8388888888888459
.8444444444444343
.8388888888889596
.8083333333332803
.7777777777778283
1.5222222222221262
.7972222222222172
.7666666666667652
.7972222222222172
.8444444444444343
.8305555555555202
.7361111111110858
.7555555555555884
.7777777777778283
.816666666666606
.7999999999999545
.7916666666667425
.8027777777778056
.8194444444443434
.775000000000091
.7361111111110858
.7722222222222399
1.6333333333333258
.875
.8333333333332575
.7833333333334167
.7861111111110404
.808333333333394
.7999999999999545
.8138888888888687
.8222222222223081
.8388888888888459
.8138888888888687
.7749999999999773
.7722222222222399
.7972222222222172
.7944444444444798
.8166666666667197
1.625
.8138888888888687
.8083333333332803
.783333333333303
1.5972222222222854
.8833333333333258
.8361111111111086
.7999999999999545
.8138888888889824
.7944444444443661
.8305555555556339
.8111111111110176
.8472222222222854
.8527777777777601
.8277777777777828
.7861111111111541
.783333333333303
.7972222222222172
.8472222222221717
.8722222222222626
.8222222222221944
.8361111111111086
.8000000000000682
.7944444444443661
.7777777777778283
.7972222222222172
.8500000000000227
.8527777777777601
.841666666666697
.7999999999999545
.8055555555555429
.8055555555555429
.8111111111111313
.808333333333394
.8416666666665833
.8361111111111086
.841666666666697
.7861111111111541
.7777777777777146
.8138888888888687
.8444444444444343
.8555555555556111
.8194444444444571
.8472222222221717
.7972222222222172
.8138888888889824
.7916666666666288
.8055555555555429
.8583333333333485
.8583333333333485
.8388888888888459
.7777777777778283
.8027777777776919
.8000000000000682
.8111111111111313
.8194444444443434
.8333333333333712
.8472222222222854
.8194444444443434
.7777777777778283
.7694444444445026
.7916666666666288
.816666666666606
.8333333333333712
.8388888888888459
.8055555555556566
.8083333333332803
.7861111111111541
.7972222222222172
.7999999999999545
.8472222222222854
.8388888888888459
.8527777777777601
.8111111111111313
.7749999999999773
.7972222222222172
.8000000000000682
.8194444444443434
.844444444444548
.8472222222221717
.8055555555555429
.8111111111111313
.7805555555555657
.7638888888889142
.8138888888888687
.816666666666606
.8222222222223081
.8055555555555429
.7888888888888914
.7694444444443889
.7972222222222172
.7944444444444798
.7944444444444798
.8527777777777601
.8194444444444571
.8083333333332803
.7999999999999545
1.5305555555555657
.8527777777778738
.8472222222221717
.8444444444444343
.8444444444444343
.808333333333394
.7666666666666515
.7972222222222172
.7805555555555657
.8388888888888459
.8555555555556111
.8277777777777828
.783333333333303
.7999999999999545
.7916666666667425
1.5444444444443661
.8166666666667197
.8361111111111086
.8194444444444571
.7638888888888005
.752777777777851
.8055555555555429
.7916666666666288
.8222222222223081
.8277777777776691
.808333333333394
.8277777777777828
.7972222222222172
.7694444444443889
.775000000000091
.8527777777777601
.8277777777777828
.8194444444444571
.7972222222222172
.783333333333303
.7861111111111541
.8055555555555429
.7944444444443661
.8222222222223081
.849999999999909
.8277777777777828
.775000000000091
.747222222222149
.7472222222222626
.7749999999999773
.8027777777778056
.8111111111111313
.7999999999999545
.8111111111111313
.783333333333303
.7472222222222626
.7444444444444116
.8027777777778056
.7805555555555657
.816666666666606
.8111111111111313
.7999999999999545
.7555555555555884
.7777777777778283
.7999999999999545
.7888888888888914
.8111111111111313
.8555555555554974
.8611111111111995
.7611111111110631
.7694444444445026
.8083333333332803
.8222222222221944
.7916666666667425
.8333333333332575
.8638888888889369
.7944444444444798
.7972222222222172
.7888888888888914
.8138888888888687
.7916666666667425
.8361111111109949
.8444444444444343
.8222222222223081
.7472222222222626
.7722222222221262
.7916666666667425
.8027777777776919
.7638888888889142
.8250000000000455
.8444444444444343
.8111111111111313
.716666666666697
.7694444444443889
.8027777777776919
.8472222222221717
.7888888888890051
.7999999999999545
.841666666666697
.8111111111111313
.7222222222221717
.7472222222222626
.7999999999999545
.841666666666697
.7861111111110404
.8027777777779193
.8027777777776919
.7916666666667425
1.508333333333212
.8222222222223081
.8472222222221717
.841666666666697
.8333333333332575
.7722222222223536
.7583333333332121
.7777777777778283
.8111111111111313
.8111111111111313
.8027777777776919
.8277777777777828
.7999999999999545
.7638888888889142
.775000000000091
.7555555555554747
.8055555555556566
.816666666666606
.8305555555555202
.7999999999999545
.8000000000001819
.7611111111109494
.7944444444444798
.7888888888890051
.8055555555554292
.8250000000000455
.8361111111112223
.8055555555554292
.783333333333303
.7805555555555657
.783333333333303
.8305555555555202
.8333333333334849
.8111111111111313
.8333333333332575
.8111111111111313
.7722222222221262
.7583333333334394
.8027777777776919
.8277777777777828
.8555555555556111
.8277777777777828
.7944444444444798
.8250000000000455
.8027777777776919
.7916666666667425
.8222222222220807
.8583333333333485
.8472222222221717
.8250000000000455
.7861111111112677
.7777777777776009
.8027777777779193
.7972222222222172
.8250000000000455
.8333333333332575
.8250000000000455
.7861111111110404
.7944444444444798
.7666666666666515
.783333333333303
.8194444444443434
.8472222222223991
.8222222222220807
.8111111111111313
.775000000000091
.7916666666665151
.8111111111111313
.8000000000001819
1.586111111110995
.841666666666697
.7972222222222172
.7638888888889142
.7888888888887777
.7944444444444798
.8250000000000455
.816666666666606
.8138888888888687
.8277777777777828
.7722222222223536
.7722222222221262
.7944444444444798
.8055555555556566
.8444444444444343
.8444444444444343
.8333333333332575
.7916666666667425
.7972222222222172
.783333333333303
.816666666666606
.8194444444445708
.8222222222220807
.841666666666697
.816666666666606
.7861111111112677
.7638888888889142
.7999999999999545
.8138888888888687
.8194444444443434
.8166666666668334
.8055555555554292
.8055555555556566
.7861111111110404
.7527777777777374
.8055555555556566
.8388888888887323
.8361111111112223
.816666666666606
.7888888888890051
.7888888888887777
.7861111111110404
.7888888888890051
.8222222222223081
.8333333333332575
.8444444444444343
.8055555555554292
.7805555555555657
.7777777777778283
.7861111111112677
.8083333333331666
.8500000000001364
.8444444444444343
.8138888888888687
.8138888888888687
.8055555555554292
.7694444444446162
.7777777777776009
.8111111111111313
.8500000000001364
.8222222222220807
.7972222222222172
.7583333333334394
.808333333333394
.7805555555555657
.7777777777776009
.8166666666668334
.841666666666697
.8138888888888687
.7861111111110404
.7722222222221262
.7694444444446162
.816666666666606
.8027777777776919
.8027777777779193
.8277777777777828
.8111111111111313
.7694444444443889
.7777777777778283
.7805555555555657
.8055555555554292
.8333333333332575
.8361111111112223
.8111111111111313
1.5388888888887777
.7861111111112677
1.5583333333331666
.8277777777777828
.8472222222223991
.8249999999998181
.7638888888889142
.7694444444443889
.7694444444446162
.8194444444443434
.841666666666697
.8250000000000455
.8055555555554292
.8388888888889596
.7805555555555657
.7694444444443889
.7972222222222172
.8277777777777828
.8444444444444343
.8388888888889596
.7888888888890051
.7916666666665151
.816666666666606
.7888888888890051
.783333333333303
.8583333333333485
.8277777777777828
.8472222222221717
.7888888888890051
.7777777777776009
.7805555555555657
.8333333333334849
.8194444444443434
.8305555555555202
.8333333333334849
.8055555555554292
.7861111111112677
.783333333333303
.7888888888887777
1.5638888888888687
.8388888888889596
.8250000000000455
.7944444444444798
.7611111111109494
.8000000000001819
.8138888888888687
1.5583333333331666
.8527777777778738
.8305555555555202
.783333333333303
.783333333333303
.7861111111112677
.841666666666697
.8388888888887323
.8194444444445708
.8138888888888687
.8222222222220807
.7944444444444798
.783333333333303
.8055555555556566
.8611111111110858
.8666666666665606
.8222222222223081
.7999999999999545
.8222222222223081
.8194444444443434
.8250000000000455
1.6277777777777374
.8666666666667879
.8388888888887323
.7833333333335304
.7972222222222172
.8277777777777828
1.6305555555554747
.8388888888889596
.8222222222220807
.8055555555556566
.7722222222221262
.7805555555555657
.8138888888888687
.8444444444444343
.8277777777777828
.8138888888888687
.7916666666667425
.7888888888890051
.7888888888887777
.7944444444444798
.841666666666697
.8444444444444343
.8527777777776464
.8055555555556566
.7972222222222172
.783333333333303
.7999999999999545
.8277777777777828
.8555555555556111
.8444444444444343
.8222222222223081
.8027777777776919
.7999999999999545
.7805555555555657
.808333333333394
.8194444444443434
.8527777777778738
.8388888888889596
.8055555555554292
1.5361111111112677
.8222222222220807
.8194444444445708
.8333333333332575
.8361111111109949
.8277777777777828
.7888888888890051
.7611111111111768
.7999999999999545
.8361111111109949
.841666666666697
1.630555555555702
.8111111111111313
.7972222222222172
.7694444444443889
.7888888888887777
.8388888888889596
.8583333333333485
.8222222222223081
.7972222222222172
.8055555555554292
.7916666666667425
.7999999999999545
.8138888888888687
.8333333333332575
.8527777777778738
.8277777777777828
.7722222222221262
.7888888888890051
.7888888888887777
.7888888888890051
.8666666666665606
.841666666666697
.8222222222223081
.8250000000000455
.7805555555555657
.783333333333303
.7888888888887777
.8333333333332575
.841666666666697
.841666666666697
.8277777777777828
.7805555555555657
.8027777777779193
.7944444444442524
.8194444444445708
.841666666666697
.841666666666697
.8277777777777828
.8249999999998181
.783333333333303
.8000000000001819
.8333333333332575
.8527777777778738
.8388888888887323
.8472222222221717
.7861111111112677
.8111111111111313
.7916666666665151
.7916666666667425
.8277777777777828
.8722222222222626
.8250000000000455
.816666666666606
.783333333333303
.7999999999999545
.8055555555556566
.8055555555554292
.8194444444445708
.8611111111110858
.8444444444444343
.7916666666667425
.7805555555555657
.7999999999999545
.8194444444443434
.8527777777778738
.8250000000000455
.816666666666606
.8250000000000455
.7916666666665151
.7694444444446162
.7861111111110404
.8111111111111313
.8361111111109949
.8277777777777828
.7972222222222172
.7666666666666515
.7916666666667425
.7722222222221262
.7861111111112677
.8361111111109949
.8333333333334849
.8277777777777828
.7944444444442524
.7666666666668789
.75
.7749999999998636
.7888888888890051
.8222222222220807
.8055555555556566
.7972222222222172
.7749999999998636
.7972222222222172
.775000000000091
.8027777777776919
.8277777777777828
.8722222222222626
.841666666666697
.7999999999999545
.7916666666667425
.816666666666606
.8222222222223081
.8305555555555202
.8388888888889596
.875
.8222222222220807
.7861111111112677
.7861111111110404
.808333333333394
.8388888888887323
.841666666666697
.8388888888889596
.8305555555555202
.8138888888888687
.7861111111110404
.7777777777778283
.8194444444445708
.8333333333332575
.8472222222221717
.8222222222223081
.816666666666606
.7861111111110404
.808333333333394
.7916666666667425
.8111111111111313
.8277777777777828
.8222222222220807
.7916666666667425
.775000000000091
.7638888888886868
.7694444444446162
.8277777777777828
1.5972222222221717
.8388888888889596
.7999999999999545
.7805555555555657
.7916666666665151
.7972222222222172
.8194444444445708
.8388888888889596
.8416666666664696
.7888888888890051
.7944444444444798
.7805555555555657
.7805555555555657
.8277777777777828
.8277777777777828
.841666666666697
.8249999999998181
.8166666666668334
.7694444444443889
.7916666666667425
.7972222222222172
.8416666666664696
.8472222222223991
.8277777777777828
.7944444444442524
.8111111111111313
.7833333333335304
.783333333333303
.8083333333331666
.8361111111112223
.8388888888889596
.8194444444443434
.7583333333334394
.7805555555555657
.8055555555554292
.7972222222222172
.8222222222223081
.841666666666697
.8444444444444343
.8222222222220807
.8027777777779193
.7638888888889142
.8333333333332575
.8444444444444343
.8333333333332575
.8250000000000455
.8333333333332575
.7888888888890051
.8027777777776919
.7722222222223536
.8027777777776919
.8611111111110858
.8527777777778738
.8055555555554292
.7888888888890051
.7888888888887777
.8027777777779193
.8194444444443434
.8194444444445708
.8444444444444343
.8611111111110858
.8083333333331666
.7638888888889142
.783333333333303
.7944444444444798
.841666666666697
.8500000000001364
.8222222222220807
.841666666666697
.8222222222223081
.7972222222222172
.7749999999998636
.8194444444445708
.8305555555555202
.8555555555556111
.816666666666606
.7749999999998636
.7972222222224445
.7999999999999545
.7416666666665606
.8722222222222626
.8472222222221717
1.5944444444444343
.7916666666667425
.7944444444444798
.8222222222220807
.8388888888889596
.8444444444444343
.8361111111112223
.8333333333332575
.8111111111111313
.808333333333394
.7777777777776009
.8277777777777828
.8694444444445253
.8555555555556111
.816666666666606
.7999999999999545
.7888888888890051
.8083333333331666
.808333333333394
.8194444444445708
.8388888888887323
.8500000000001364
.8027777777776919
.7777777777778283
.7888888888887777
.7972222222222172
.8388888888889596
.8388888888889596
.849999999999909
.8277777777777828
.816666666666606
.7777777777778283
.808333333333394
.8194444444443434
.8361111111112223
.8611111111110858
.8305555555555202
.8055555555556566
.7972222222222172
.7888888888887777
.8138888888888687
.8194444444445708
.841666666666697
.8138888888888687
.8194444444443434
.7916666666667425
.7805555555555657
.7999999999999545
.8277777777777828
.8583333333333485
.8305555555555202
.8250000000000455
.7777777777778283
.7944444444442524
.7833333333335304
.8138888888888687
.8472222222221717
.8472222222221717
.8500000000001364
.7944444444442524
.7944444444444798
.7916666666667425
.8250000000000455
.8305555555555202
.8277777777777828
.8333333333332575
.8222222222223081
.7888888888887777
.783333333333303
.7833333333335304
.8333333333332575
.8611111111110858
.841666666666697
.8222222222220807
.808333333333394
.808333333333394
.783333333333303
.816666666666606
.8388888888889596
.8472222222221717
.8472222222221717
.7972222222222172
.7583333333334394
.7944444444444798
.7805555555555657
.7888888888887777
.8138888888888687
1.6666666666667425
.7861111111110404
.7666666666666515
.7611111111111768
.8388888888889596
.8277777777777828
.816666666666606
.808333333333394
.7916666666667425
.783333333333303
.7944444444442524
.7722222222223536
.808333333333394
.8694444444442979
.8361111111112223
.7749999999998636
.7861111111112677
.7805555555555657
.8027777777776919
.8194444444443434
.8166666666668334
.8555555555556111
.849999999999909
.7999999999999545
.7722222222223536
.7916666666665151
.7888888888890051
.841666666666697
.8249999999998181
.8055555555556566
.8361111111109949
.8027777777779193
.7861111111110404
.775000000000091
.8083333333331666
.8472222222223991
.849999999999909
.8194444444445708
.7666666666666515
.8027777777776919
.7944444444444798
.8027777777776919
.8138888888888687
.8333333333334849
.8388888888887323
.8277777777777828
.7805555555555657
.75
.8194444444445708
.816666666666606
.8250000000000455
.7972222222222172
.8027777777776919
.7861111111110404
1.5277777777778283
.783333333333303
.8555555555556111
.8305555555555202
.8055555555556566
.7805555555555657
.783333333333303
.7805555555555657
.7999999999999545
.8027777777776919
.8333333333334849
1.5944444444444343
.7888888888887777
.7944444444444798
1.4888888888888232
.8500000000001364
.8305555555555202
.8277777777777828
.8194444444443434
.7916666666667425
.7722222222223536
.7777777777776009
.8222222222223081
.8555555555556111
.8388888888887323
.8027777777779193
.8027777777776919
.8111111111111313
.8138888888888687
.808333333333394
.849999999999909
.8388888888889596
.8611111111110858
.7999999999999545
.7777777777778283
.7916666666667425
.8333333333332575
1.6472222222221262
.8583333333333485
.8111111111111313
.808333333333394
.7805555555555657
.8027777777776919
.841666666666697
.8638888888890506
.8333333333332575
.816666666666606
.7916666666667425
.7888888888887777
.7916666666667425
.8055555555554292
.8361111111112223
.841666666666697
1.6277777777777374
.7888888888890051
.7861111111110404
.808333333333394
.8305555555555202
.8305555555555202
.8250000000000455
.8083333333331666
.7916666666667425
.7666666666666515
.7583333333334394
.6972222222220807
.8888888888889142
.8333333333334849
.783333333333303
.7666666666666515
.7388888888888232
.7555555555554747
.7444444444445253
.7555555555554747
.775000000000091
.7694444444443889
.7777777777778283
.7333333333333485
.6944444444443434
.683333333333394
.7194444444444343
.7472222222222626
.7583333333334394
.7527777777777374
.75
.7333333333333485
.7388888888888232
.7277777777776464
.7555555555557021
.7694444444443889
.8138888888888687
.8138888888888687
.7666666666666515
.7555555555557021
.7638888888889142
.7777777777776009
.7611111111111768
.8027777777776919
.813888888889096
.8027777777776919
.7861111111110404
.783333333333303
1.4833333333333485
.8222222222223081
.8527777777776464
.8055555555556566
.7861111111110404
.8111111111111313
.7555555555557021
.7638888888889142
.7999999999999545
.8388888888887323
.7944444444444798
.8500000000001364
.8194444444443434
.7138888888889596
.7388888888888232
.7444444444445253
.7083333333332575
.724999999999909
.7555555555557021
.7083333333332575
.7111111111112223
.7027777777777828
.6833333333331666
.6527777777778283
.691666666666606
.7277777777778738
.7472222222222626
.7111111111109949
.7555555555557021
.7277777777776464
.7333333333333485
.7277777777778738
.7361111111110858
.7388888888888232
.7777777777778283
.7861111111110404
.7944444444444798
.7666666666666515
.7416666666667879
.7416666666665606
.7999999999999545
.7972222222222172
.7777777777778283
.8444444444444343
.8638888888888232
.7722222222223536
.7527777777777374
.7916666666667425
.816666666666606
.8138888888888687
.8277777777777828
.8250000000000455
.808333333333394
.7694444444443889
.7388888888888232
.7416666666667879
.7694444444443889
.7861111111110404
.8027777777779193
.8055555555554292
.7555555555554747
.7638888888889142
.783333333333303
.775000000000091
.7916666666667425
.8083333333331666
.8222222222223081
.808333333333394
.7694444444443889
.7666666666666515
.7777777777778283
.8027777777776919
.808333333333394
.816666666666606
.8055555555556566
.7666666666666515
.7777777777778283
.7694444444443889
.7583333333332121
.7805555555555657
.8500000000001364
.8111111111111313
.783333333333303
.7666666666666515
.7694444444443889
.7861111111110404
.7777777777778283
.8027777777779193
.816666666666606
.8305555555555202
.7777777777778283
.7666666666666515
.7694444444443889
.7805555555555657
.808333333333394
.8277777777777828
.8277777777777828
.8111111111111313
.7916666666665151
.7666666666666515
.7694444444446162
.783333333333303
.7861111111110404
.841666666666697
.816666666666606
.783333333333303
.7388888888890506
.7722222222221262
.7527777777777374
.775000000000091
.7611111111111768
.8083333333331666
.7861111111112677
.7861111111110404
.724999999999909
.75
.7611111111111768
.7916666666667425
.8027777777776919
.7999999999999545
.7916666666667425
.7805555555555657
.7611111111111768
.7555555555554747
.7666666666666515
.7999999999999545
.8250000000000455
.8138888888888687
1.4249999999999545
.7416666666667879
.7388888888888232
.7277777777778738
.7555555555554747
.7638888888889142
.7611111111111768
.7416666666665606
.7194444444444343
.7277777777778738
.716666666666697
.7166666666664696
.7611111111111768
.75
.7527777777777374
.7472222222222626
.75
.7222222222221717
.7083333333334849
.7277777777776464
.7805555555555657
.7805555555555657
.7972222222222172
.8055555555556566
.783333333333303
.7555555555554747
.783333333333303
.808333333333394
.816666666666606
.8166666666668334
.8472222222221717
.8138888888888687
.7916666666667425
.7722222222221262
.7944444444444798
.816666666666606
.8500000000001364
.8277777777777828
.8194444444443434
.8055555555556566
.7944444444442524
.7916666666667425
.7722222222221262
.8361111111112223
.8277777777777828
.7999999999999545
.7555555555557021
.7694444444443889
.7583333333332121
.7694444444446162
.7638888888886868
.7833333333335304
.7888888888887777
.7805555555555657
.724999999999909
.7222222222223991
.7111111111109949
.7138888888889596
.724999999999909
.783333333333303
.7472222222222626
.7250000000001364
.7361111111110858
.716666666666697
.6999999999998181
.683333333333394
.716666666666697
.7277777777778738
.7472222222220353
.7611111111111768
.7111111111112223
.6805555555554292
.7055555555555202
.7000000000000455
.6944444444445708
.7138888888887323
