4.975
4.975
4.975
4.975
4.975
4.975
4.975
4.975
5
4.985
4.975
4.97
4.96
4.965
4.96
4.945
4.94
4.935
4.95
4.965
4.945
4.94
4.93
4.94
4.965
4.985
4.965
4.93
4.915
4.885
4.895
4.875
4.87
4.86
4.845
4.845
4.845
4.855
4.865
4.855
4.845
4.83
4.83
4.83
4.83
4.835
4.825
4.815
4.835
4.845
4.845
4.84
4.835
4.815
4.83
4.82
4.84
4.83
4.82
4.805
4.8
4.785
4.76
4.735
4.735
4.715
4.665
4.635
4.635
4.695
4.79
4.9
5.05
5.24
5.495
5.74
5.9
5.96
5.885
5.64
5.29
4.955
4.755
4.685
4.695
4.75
4.79
4.795
4.785
4.775
4.79
4.795
4.805
4.81
4.8
4.785
4.78
4.795
4.775
4.785
4.79
4.785
4.79
4.795
4.79
4.79
4.775
4.765
4.785
4.795
4.815
4.8
4.8
4.79
4.78
4.785
4.78
4.775
4.765
4.765
4.78
4.79
4.79
4.79
4.78
4.77
4.795
4.795
4.79
4.79
4.785
4.785
4.78
4.79
4.78
4.77
4.765
4.77
4.775
4.79
4.8
4.785
4.79
4.775
4.79
4.785
4.785
4.775
4.775
4.765
4.78
4.78
4.785
4.79
4.77
4.77
4.775
4.785
4.785
4.785
4.77
4.765
4.765
4.775
4.775
4.785
4.77
4.76
4.76
4.76
4.755
4.76
4.75
4.735
4.75
4.76
4.765
4.76
4.745
4.745
4.755
4.755
4.76
4.76
4.755
4.75
4.765
4.79
4.795
4.795
4.785
4.78
4.805
4.82
4.82
4.83
4.825
4.83
4.835
4.845
4.865
4.87
4.87
4.855
4.865
4.875
4.89
4.875
4.875
4.865
4.865
4.88
4.87
4.865
4.875
4.865
4.87
4.87
4.855
4.86
4.86
4.855
4.85
4.855
4.86
4.845
4.84
4.83
4.845
4.85
4.86
4.84
4.84
4.835
4.845
4.845
4.855
4.85
4.835
4.83
4.84
4.845
4.835
4.84
4.82
4.82
4.815
4.825
4.82
4.81
4.81
4.815
4.825
4.835
4.835
4.83
4.825
4.81
4.83
4.825
4.82
4.815
4.81
4.795
4.81
4.82
4.83
4.81
4.795
4.79
4.805
4.82
4.815
4.81
4.8
4.79
4.795
4.805
4.81
4.815
4.815
4.81
4.82
4.815
4.83
4.82
4.82
4.815
4.815
4.83
4.84
4.825
4.815
4.805
4.815
4.825
4.83
4.84
4.85
4.845
4.845
4.85
4.87
4.87
4.865
4.895
4.9
4.915
4.92
4.915
4.905
4.89
4.9
4.895
4.895
4.895
4.89
4.885
4.88
4.885
4.9
4.91
4.915
4.875
4.835
4.835
4.82
4.81
4.79
4.79
4.795
4.805
4.8
4.805
4.795
4.78
4.775
4.78
4.78
4.77
4.775
4.765
4.79
4.785
4.79
4.8
4.775
4.765
4.78
4.79
4.795
4.79
4.77
4.755
4.76
4.74
4.695
4.675
4.645
4.61
4.585
4.615
4.705
4.82
4.96
5.105
5.355
5.61
5.84
5.995
6.06
6.025
5.875
5.61
5.285
5.01
4.85
4.73
4.67
4.645
4.665
4.695
4.73
4.73
4.735
4.73
4.74
4.74
4.74
4.725
4.735
4.735
4.735
4.745
4.725
4.71
4.71
4.72
4.725
4.73
4.715
4.725
4.735
4.745
4.73
4.73
4.715
4.71
4.71
4.73
4.73
4.725
4.715
4.705
4.72
4.71
4.715
4.71
4.705
4.71
4.72
4.72
4.725
4.73
4.715
4.71
4.73
4.73
4.735
4.735
4.71
4.715
4.725
4.73
4.745
4.73
4.725
4.71
4.72
4.73
4.73
4.735
4.715
4.705
4.705
4.72
4.725
4.715
4.705
4.7
4.7
4.71
4.705
4.695
4.7
4.685
4.69
4.69
4.7
4.69
4.67
4.665
4.67
4.685
4.675
4.67
4.665
4.65
4.66
4.665
4.67
4.665
4.65
4.645
4.66
4.67
4.675
4.68
4.685
4.68
4.71
4.725
4.75
4.755
4.76
4.755
4.78
4.795
4.805
4.8
4.79
4.79
4.8
4.81
4.82
4.82
4.8
4.8
4.805
4.815
4.815
4.825
4.8
4.79
4.815
4.81
4.82
4.82
4.8
4.795
4.81
4.815
4.805
4.815
4.805
4.805
4.81
4.825
4.83
4.815
4.81
4.8
4.805
4.82
4.805
4.805
4.805
4.79
4.805
4.8
4.805
4.795
4.785
4.78
4.785
4.785
4.79
4.795
4.775
4.77
4.775
4.785
4.79
4.79
4.775
4.775
4.775
4.8
4.79
4.785
4.78
4.765
4.785
4.79
4.79
4.785
4.765
4.76
4.765
4.77
4.78
4.775
4.775
4.775
4.775
4.79
4.79
4.785
4.775
4.77
4.77
4.78
4.79
4.775
4.775
4.765
4.77
4.78
4.79
4.78
4.78
4.78
4.79
4.785
4.79
4.785
4.775
4.775
4.78
4.79
4.805
4.825
4.82
4.825
4.835
4.845
4.855
4.855
4.855
4.865
4.87
4.88
4.895
4.905
4.88
4.875
4.88
4.875
4.885
4.875
4.87
4.845
4.845
4.855
4.87
4.895
4.9
4.89
4.855
4.85
4.84
4.835
4.815
4.8
4.78
4.79
4.785
4.785
4.765
4.75
4.76
4.775
4.77
4.765
4.755
4.745
4.74
4.75
4.755
4.755
4.74
4.735
4.74
4.745
4.765
4.75
4.73
4.715
4.71
4.685
4.655
4.63
4.6
4.565
4.55
4.595
4.715
4.87
5.03
5.24
5.53
5.81
6.005
6.08
5.97
5.64
5.17
4.8
4.62
4.615
4.675
4.705
4.725
4.73
4.725
4.73
4.725
4.715
4.725
4.715
4.73
4.725
4.725
4.71
4.715
4.72
4.72
4.705
4.715
4.7
4.705
4.715
4.715
4.7
4.7
4.685
4.7
4.71
4.71
4.715
4.695
4.69
4.7
4.705
4.71
4.71
4.695
4.7
4.72
4.725
4.72
4.72
4.725
4.705
4.715
4.73
4.72
4.72
4.705
4.695
4.695
4.705
4.705
4.71
4.695
4.695
4.7
4.705
4.72
4.72
4.71
4.695
4.71
4.715
4.725
4.72
4.72
4.715
4.735
4.72
4.73
4.73
4.72
4.705
4.715
4.715
4.71
4.705
4.7
4.7
4.695
4.705
4.705
4.71
4.685
4.69
4.685
4.7
4.7
4.7
4.7
4.695
4.695
4.705
4.725
4.725
4.73
4.745
4.76
4.78
4.785
4.79
4.785
4.785
4.795
4.8
4.815
4.815
4.805
4.81
4.815
4.82
4.82
4.82
4.81
4.81
4.81
4.805
4.82
4.815
4.805
4.8
4.795
4.81
4.815
4.815
4.8
4.795
4.815
4.81
4.825
4.81
4.795
4.79
4.8
4.8
4.8
4.795
4.77
4.77
4.78
4.785
4.79
4.785
4.78
4.76
4.77
4.77
4.765
4.76
4.765
4.755
4.765
4.77
4.78
4.765
4.77
4.755
4.755
4.77
4.765
4.77
4.75
4.74
4.75
4.76
4.755
4.76
4.755
4.74
4.75
4.755
4.77
4.77
4.77
4.75
4.755
4.775
4.775
4.78
4.765
4.755
4.76
4.765
4.765
4.765
4.745
4.735
4.765
4.76
4.765
4.76
4.76
4.75
4.76
4.775
4.765
4.775
4.775
4.775
4.78
4.81
4.815
4.815
4.81
4.815
4.83
4.835
4.845
4.84
4.84
4.845
4.855
4.865
4.875
4.86
4.855
4.845
4.84
4.855
4.85
4.845
4.84
4.845
4.84
4.845
4.855
4.865
4.88
4.86
4.84
4.81
4.81
4.775
4.76
4.74
4.735
4.74
4.75
4.745
4.735
4.73
4.725
4.735
4.735
4.735
4.725
4.715
4.72
4.745
4.745
4.73
4.725
4.705
4.715
4.72
4.73
4.715
4.695
4.66
4.645
4.615
4.61
4.595
4.58
4.52
4.475
4.49
4.545
4.625
4.735
4.85
5.005
5.21
5.49
5.755
5.93
5.98
5.89
5.595
5.185
4.815
4.62
4.6
4.645
4.71
4.73
4.73
4.72
4.71
4.715
4.735
4.73
4.725
4.715
4.71
4.715
4.72
4.73
4.725
4.71
4.705
4.71
4.725
4.715
4.71
4.715
4.715
4.71
4.73
4.735
4.73
4.725
4.72
4.72
4.72
4.725
4.725
4.715
4.715
4.72
4.725
4.735
4.745
4.735
4.725
4.73
4.735
4.745
4.735
4.725
4.725
4.735
4.745
4.745
4.735
4.725
4.73
4.73
4.755
4.745
4.735
4.725
4.74
4.735
4.745
4.74
4.73
4.74
4.745
4.745
4.745
4.745
4.74
4.73
4.73
4.755
4.75
4.745
4.735
4.73
4.73
4.745
4.755
4.735
4.74
4.73
4.745
4.745
4.755
4.75
4.735
4.725
4.735
4.735
4.75
4.755
4.75
4.745
4.77
4.785
4.8
4.805
4.8
4.795
4.805
4.825
4.835
4.82
4.825
4.835
4.835
4.84
4.85
4.84
4.83
4.825
4.825
4.83
4.84
4.83
4.825
4.81
4.825
4.835
4.84
4.845
4.825
4.815
4.82
4.825
4.825
4.835
4.82
4.815
4.82
4.825
4.82
4.815
4.805
4.81
4.805
4.825
4.82
4.81
4.79
4.78
4.79
4.8
4.8
4.805
4.795
4.785
4.79
4.805
4.8
4.8
4.79
4.775
4.78
4.785
4.79
4.785
4.775
4.77
4.775
4.78
4.785
4.785
4.79
4.785
4.78
4.785
4.8
4.78
4.78
4.77
4.755
4.76
4.775
4.775
4.77
4.77
4.77
4.78
4.78
4.775
4.775
4.74
4.76
4.76
4.775
4.775
4.77
4.765
4.775
4.79
4.79
4.785
4.785
4.78
4.79
4.8
4.83
4.83
4.82
4.815
4.835
4.84
4.845
4.84
4.845
4.85
4.855
4.87
4.89
4.875
4.88
4.865
4.865
4.875
4.885
4.865
4.855
4.86
4.865
4.85
4.855
4.84
4.865
4.87
4.875
4.855
4.84
4.82
4.805
4.795
4.785
4.775
4.79
4.785
4.775
4.76
4.77
4.78
4.785
4.775
4.76
4.755
4.745
4.75
4.755
4.755
4.74
4.745
4.745
4.755
4.75
4.76
4.75
4.74
4.755
4.76
4.77
4.765
4.75
4.735
4.725
4.69
4.675
4.635
4.605
4.555
4.565
4.645
4.765
4.9
5.065
5.305
5.595
5.825
5.94
5.9
5.655
5.265
4.92
4.7
4.62
4.64
4.67
4.71
4.72
4.73
4.73
4.72
4.715
4.695
4.695
4.715
4.725
4.715
4.715
4.705
4.715
4.735
4.73
4.725
4.725
4.725
4.725
4.735
4.73
4.73
4.72
4.695
4.71
4.72
4.725
4.72
4.715
4.695
4.705
4.715
4.715
4.715
4.71
4.705
4.715
4.7
4.715
4.71
4.71
4.7
4.705
4.715
4.725
4.725
4.725
4.72
4.725
4.725
4.715
4.715
4.7
4.685
4.705
4.715
4.725
4.73
4.705
4.715
4.715
4.72
4.725
4.725
4.715
4.7
4.705
4.72
4.725
4.72
4.715
4.695
4.695
4.695
4.7
4.695
4.67
4.675
4.67
4.685
4.675
4.65
4.665
4.66
4.68
4.685
4.695
4.69
4.675
4.67
4.675
4.69
4.7
4.71
4.695
4.7
4.715
4.74
4.75
4.755
4.755
4.755
4.775
4.79
4.805
4.815
4.815
4.8
4.81
4.81
4.815
4.81
4.805
4.8
4.805
4.815
4.815
4.825
4.81
4.8
4.81
4.805
4.825
4.82
4.815
4.82
4.835
4.84
4.83
4.825
4.815
4.795
4.815
4.82
4.82
4.805
4.795
4.785
4.795
4.805
4.8
4.785
4.79
4.78
4.795
4.795
4.8
4.805
4.785
4.785
4.775
4.785
4.795
4.79
4.805
4.785
4.79
4.79
4.79
4.79
4.785
4.78
4.79
4.8
4.805
4.795
4.785
4.765
4.775
4.78
4.785
4.8
4.795
4.77
4.79
4.805
4.805
4.79
4.79
4.785
4.785
4.79
4.79
4.79
4.78
4.78
4.78
4.795
4.795
4.795
4.775
4.77
4.78
4.79
4.8
4.81
4.815
4.815
4.845
4.85
4.865
4.86
4.855
4.86
4.87
4.885
4.885
4.9
4.885
4.885
4.9
4.89
4.895
4.885
4.875
4.865
4.88
4.89
4.89
4.87
4.865
4.87
4.89
4.915
4.925
4.91
4.89
4.85
4.85
4.835
4.835
4.81
4.79
4.78
4.78
4.775
4.77
4.77
4.78
4.765
4.775
4.78
4.78
4.775
4.765
4.75
4.765
4.75
4.775
4.78
4.76
4.74
4.76
4.775
4.77
4.77
4.765
4.74
4.73
4.725
4.695
4.665
4.645
4.61
4.575
4.58
4.625
4.715
4.825
4.96
5.16
5.435
5.715
5.92
6.005
5.915
5.64
5.25
4.905
4.695
4.62
4.63
4.67
4.72
4.73
4.725
4.725
4.72
4.73
4.74
4.735
4.735
4.72
4.71
4.71
4.73
4.73
4.715
4.715
4.705
4.71
4.725
4.725
4.72
4.705
4.705
4.705
4.72
4.73
4.73
4.71
4.705
4.715
4.725
4.725
4.725
4.715
4.71
4.71
4.72
4.73
4.725
4.71
4.695
4.705
4.715
4.71
4.715
4.705
4.695
4.695
4.71
4.725
4.73
4.72
4.71
4.71
4.72
4.73
4.71
4.7
4.7
4.705
4.705
4.715
4.7
4.705
4.695
4.71
4.72
4.715
4.72
4.72
4.71
4.72
4.725
4.725
4.715
4.71
4.695
4.695
4.71
4.71
4.7
4.69
4.675
4.68
4.685
4.69
4.69
4.67
4.675
4.675
4.685
4.685
4.675
4.68
4.67
4.69
4.69
4.705
4.72
4.72
4.735
4.755
4.785
4.79
4.795
4.79
4.79
4.81
4.825
4.835
4.83
4.83
4.81
4.825
4.835
4.84
4.82
4.83
4.825
4.83
4.84
4.845
4.845
4.83
4.83
4.835
4.85
4.85
4.85
4.845
4.83
4.835
4.845
4.845
4.83
4.825
4.815
4.825
4.825
4.835
4.83
4.82
4.815
4.81
4.825
4.82
4.815
4.81
4.795
4.795
4.805
4.81
4.805
4.805
4.795
4.8
4.81
4.8
4.805
4.79
4.79
4.8
4.81
4.81
4.81
4.79
4.785
4.79
4.8
4.795
4.795
4.79
4.785
4.79
4.795
4.795
4.8
4.795
4.79
4.795
4.805
4.815
4.795
4.805
4.785
4.79
4.81
4.8
4.79
4.79
4.785
4.79
4.79
4.8
4.8
4.79
4.79
4.795
4.805
4.805
4.805
4.79
4.79
4.8
4.805
4.815
4.815
4.825
4.805
4.82
4.845
4.865
4.865
4.86
4.855
4.865
4.885
4.89
4.895
4.9
4.9
4.905
4.92
4.915
4.915
4.895
4.885
4.88
4.89
4.905
4.88
4.88
4.87
4.885
4.91
4.92
4.9
4.865
4.845
4.835
4.82
4.815
4.8
4.79
4.795
4.8
4.79
4.79
4.785
4.78
4.775
4.78
4.785
4.8
4.795
4.785
4.775
4.775
4.775
4.785
4.78
4.775
4.765
4.78
4.78
4.78
4.78
4.775
4.765
4.755
4.75
4.715
4.675
4.64
4.625
4.6
4.585
4.615
4.705
4.84
4.985
5.185
5.42
5.7
5.93
6.065
6.04
5.895
5.565
5.14
4.825
4.675
4.65
4.695
4.74
4.76
4.76
4.75
4.74
4.74
4.745
4.75
4.755
4.75
4.735
4.735
4.745
4.75
4.75
4.735
4.725
4.735
4.735
4.73
4.735
4.725
4.71
4.72
4.725
4.74
4.725
4.725
4.72
4.72
4.725
4.73
4.73
4.725
4.715
4.73
4.735
4.745
4.745
4.74
4.73
4.735
4.75
4.75
4.75
4.745
4.735
4.75
4.73
4.745
4.75
4.74
4.73
4.73
4.735
4.745
4.745
4.735
4.725
4.73
4.735
4.745
4.74
4.735
4.73
4.74
4.74
4.75
4.75
4.755
4.73
4.755
4.755
4.76
4.745
4.74
4.72
4.73
4.745
4.745
4.75
4.735
4.73
4.73
4.73
4.73
4.745
4.735
4.725
4.74
4.75
4.745
4.745
4.73
4.715
4.745
4.75
4.76
4.745
4.735
4.74
4.75
4.76
4.775
4.775
4.79
4.79
4.805
4.81
4.825
4.835
4.835
4.825
4.84
4.85
4.84
4.84
4.84
4.83
4.83
4.84
4.845
4.84
4.835
4.83
4.83
4.84
4.84
4.835
4.83
4.82
4.825
4.835
4.84
4.835
4.835
4.825
4.835
4.84
4.845
4.84
4.83
4.81
4.815
4.835
4.85
4.85
4.845
4.835
4.835
4.85
4.855
4.855
4.855
4.84
4.855
4.875
4.885
4.885
4.87
4.87
4.875
4.905
4.9
4.875
4.865
4.89
4.915
4.91
4.9
4.89
4.88
4.88
4.875
4.87
4.85
4.835
4.805
4.8
4.8
4.81
4.79
4.78
4.775
4.76
4.755
4.76
4.77
4.765
4.745
4.735
4.745
4.75
4.755
4.755
4.75
4.74
4.76
4.77
4.765
4.765
4.77
4.755
4.77
4.77
4.78
4.765
4.77
4.745
4.755
4.745
4.72
4.69
4.645
4.6
4.6
4.57
4.55
4.58
4.675
4.815
4.98
5.145
5.38
5.63
5.855
5.965
5.995
5.855
5.52
5.095
4.785
4.64
4.65
4.705
4.745
4.755
4.735
4.72
4.74
4.73
4.745
4.735
4.725
4.715
4.73
4.74
4.735
4.735
4.725
4.72
4.715
4.72
4.73
4.73
4.725
4.72
4.73
4.735
4.73
4.735
4.71
4.7
4.715
4.71
4.73
4.73
4.73
4.72
4.72
4.73
4.745
4.74
4.725
4.72
4.73
4.72
4.73
4.725
4.71
4.705
4.715
4.735
4.735
4.74
4.72
4.72
4.725
4.73
4.74
4.745
4.725
4.725
4.735
4.74
4.745
4.735
4.73
4.72
4.72
4.735
4.74
4.725
4.73
4.72
4.725
4.735
4.74
4.735
4.725
4.715
4.72
4.73
4.74
4.74
4.735
4.715
4.725
4.72
4.73
4.72
4.715
4.695
4.7
4.715
4.72
4.715
4.715
4.705
4.72
4.73
4.74
4.735
4.725
4.715
4.73
4.75
4.75
4.75
4.735
4.75
4.765
4.775
4.78
4.785
4.78
4.765
4.785
4.795
4.81
4.815
4.815
4.8
4.805
4.81
4.815
4.815
4.79
4.795
4.775
4.795
4.805
4.805
4.815
4.81
4.81
4.82
4.815
4.815
4.805
4.8
4.795
4.805
4.815
4.805
4.795
4.795
4.79
4.805
4.805
4.81
4.79
4.78
4.785
4.79
4.775
4.765
4.755
4.75
4.775
4.78
4.78
4.775
4.76
4.755
4.76
4.76
4.775
4.765
4.755
4.77
4.76
4.77
4.78
4.775
4.765
4.75
4.77
4.77
4.77
4.775
4.77
4.765
4.76
4.775
4.765
4.77
4.76
4.75
4.765
4.765
4.77
4.765
4.76
4.73
4.735
4.76
4.76
4.75
4.75
4.73
4.745
4.75
4.77
4.78
4.775
4.76
4.76
4.77
4.77
4.785
4.76
4.755
4.755
4.76
4.76
4.755
4.745
4.735
4.735
4.755
4.75
4.745
4.75
4.745
4.755
4.765
4.765
4.76
4.755
4.75
4.76
4.77
4.78
4.775
4.78
4.77
4.775
4.77
4.76
4.77
4.76
4.75
4.76
4.76
4.765
4.76
4.745
4.745
4.75
4.77
4.765
4.76
4.755
4.745
4.75
4.755
4.76
4.765
4.76
4.76
4.77
4.78
4.775
4.775
4.765
4.76
4.76
4.755
4.775
4.765
4.77
4.76
4.765
4.76
4.775
4.785
4.79
4.79
4.81
4.815
4.82
4.815
4.825
4.815
4.835
4.845
4.855
4.865
4.865
4.86
4.855
4.865
4.865
4.86
4.84
4.83
4.84
4.85
4.865
4.845
4.83
4.8
4.82
4.825
4.85
4.855
4.85
4.835
4.82
4.81
4.805
4.8
4.77
4.75
4.755
4.755
4.755
4.75
4.75
4.75
4.74
4.76
4.745
4.745
4.72
4.7
4.715
4.72
4.735
4.74
4.72
4.705
4.715
4.725
4.725
4.725
4.71
4.69
4.68
4.665
4.63
4.635
4.6
4.55
4.545
4.595
4.7
4.815
4.93
5.1
5.34
5.605
5.835
5.965
6.005
5.91
5.68
5.345
5.05
4.835
4.695
4.62
4.57
4.585
4.62
4.655
4.67
4.67
4.685
4.7
4.71
4.71
4.705
4.7
4.695
4.7
4.69
4.69
4.68
4.67
4.67
4.69
4.69
4.69
4.675
4.675
4.68
4.695
4.69
4.69
4.695
4.675
4.675
4.69
4.685
4.685
4.675
4.675
4.685
4.69
4.695
4.69
4.69
4.68
4.7
4.69
4.695
4.69
4.68
4.68
4.69
4.69
4.705
4.695
4.69
4.665
4.675
4.675
4.69
4.69
4.68
4.68
4.685
4.69
4.705
4.705
4.695
4.695
4.7
4.715
4.715
4.705
4.705
4.695
4.69
4.715
4.715
4.715
4.715
4.69
4.705
4.71
4.705
4.69
4.675
4.655
4.66
4.67
4.665
4.66
4.655
4.635
4.625
4.645
4.63
4.62
4.625
4.605
4.62
4.635
4.63
4.635
4.62
4.62
4.63
4.64
4.66
4.66
4.65
4.655
4.68
4.69
4.695
4.71
4.71
4.72
4.73
4.74
4.765
4.77
4.765
4.77
4.78
4.79
4.795
4.815
4.8
4.805
4.815
4.82
4.815
4.815
4.81
4.79
4.81
4.805
4.805
4.8
4.795
4.795
4.795
4.81
4.81
4.805
4.795
4.79
4.795
4.795
4.805
4.8
4.79
4.785
4.79
4.805
4.8
4.8
4.785
4.785
4.795
4.795
4.8
4.8
4.795
4.77
4.775
4.775
4.785
4.775
4.765
4.765
4.765
4.775
4.785
4.785
4.775
4.765
4.78
4.785
4.79
4.785
4.775
4.77
4.77
4.78
4.785
4.79
4.76
4.765
4.775
4.785
4.775
4.77
4.76
4.74
4.75
4.775
4.775
4.77
4.765
4.755
4.76
4.775
4.775
4.77
4.76
4.76
4.77
4.765
4.78
4.775
4.765
4.765
4.765
4.78
4.78
4.775
4.755
4.75
4.77
4.79
4.8
4.805
4.825
4.815
4.825
4.82
4.835
4.845
4.86
4.845
4.855
4.86
4.87
4.875
4.865
4.855
4.86
4.86
4.87
4.86
4.84
4.84
4.845
4.835
4.84
4.865
4.875
4.875
4.86
4.835
4.83
4.82
4.8
4.785
4.765
4.77
4.765
4.765
4.745
4.735
4.74
4.76
4.77
4.76
4.755
4.75
4.75
4.755
4.76
4.755
4.75
4.735
4.735
4.755
4.76
4.74
4.735
4.725
4.725
4.735
4.74
4.725
4.695
4.655
4.62
4.605
4.59
4.56
4.535
4.59
4.71
4.865
5.015
5.225
5.475
5.72
5.93
6.01
5.95
5.7
5.305
4.915
4.67
4.595
4.625
4.655
4.685
4.705
4.705
4.705
4.72
4.725
4.715
4.695
4.685
4.705
4.705
4.705
4.705
4.69
4.7
4.71
4.715
4.7
4.71
4.7
4.72
4.725
4.735
4.72
4.72
4.72
4.72
4.725
4.72
4.72
4.72
4.71
4.725
4.71
4.72
4.725
4.715
4.71
4.705
4.715
4.72
4.725
4.715
4.705
4.715
4.705
4.71
4.715
4.715
4.71
4.715
4.72
4.725
4.715
4.715
4.72
4.725
4.73
4.725
4.73
4.725
4.7
4.705
4.715
4.72
4.72
4.705
4.7
4.71
4.725
4.72
4.715
4.705
4.685
4.705
4.705
4.72
4.715
4.7
4.69
4.695
4.71
4.71
4.715
4.705
4.695
4.695
4.7
4.71
4.71
4.7
4.69
4.695
4.7
4.715
4.705
4.71
4.71
4.735
4.75
4.76
4.77
4.77
4.77
4.785
4.8
4.815
4.805
4.805
4.8
4.815
4.815
4.825
4.83
4.825
4.825
4.835
4.835
4.85
4.84
4.84
4.825
4.84
4.835
4.845
4.835
4.825
4.815
4.825
4.835
4.835
4.83
4.82
4.81
4.825
4.82
4.83
4.835
4.815
4.81
4.82
4.825
4.815
4.82
4.815
4.8
4.8
4.81
4.82
4.81
4.8
4.78
4.79
4.81
4.805
4.795
4.795
4.775
4.79
4.8
4.8
4.785
4.785
4.765
4.78
4.8
4.805
4.79
4.78
4.78
4.77
4.79
4.79
4.78
4.77
4.765
4.775
4.785
4.785
4.78
4.78
4.775
4.785
4.785
4.795
4.795
4.785
4.78
4.78
4.8
4.805
4.8
4.785
4.785
4.8
4.795
4.805
4.8
4.8
4.775
4.785
4.8
4.81
4.8
4.8
4.78
4.79
4.8
4.81
4.81
4.81
4.825
4.84
4.865
4.87
4.87
4.865
4.86
4.88
4.9
4.89
4.89
4.905
4.9
4.895
4.89
4.89
4.885
4.875
4.865
4.88
4.885
4.875
4.885
4.89
4.9
4.925
4.9
4.875
4.86
4.85
4.83
4.82
4.815
4.815
4.8
4.79
4.77
4.77
4.785
4.785
4.785
4.78
4.77
4.77
4.775
4.785
4.775
4.765
4.75
4.77
4.775
4.785
4.785
4.785
4.765
4.765
4.775
4.765
4.725
4.67
4.64
4.615
4.595
4.575
4.62
4.725
4.865
5.05
5.265
5.545
5.805
5.995
6.045
5.915
5.59
5.14
4.795
4.65
4.635
4.71
4.755
4.765
4.755
4.74
4.735
4.74
4.75
4.75
4.745
4.735
4.725
4.735
4.74
4.735
4.745
4.73
4.715
4.715
4.73
4.735
4.735
4.73
4.71
4.72
4.73
4.735
4.735
4.725
4.73
4.725
4.74
4.745
4.74
4.735
4.72
4.735
4.74
4.745
4.74
4.725
4.725
4.735
4.745
4.75
4.755
4.735
4.725
4.735
4.735
4.75
4.745
4.75
4.745
4.745
4.75
4.765
4.755
4.74
4.745
4.75
4.74
4.755
4.75
4.745
4.73
4.74
4.745
4.74
4.75
4.745
4.74
4.735
4.735
4.75
4.745
4.745
4.74
4.74
4.74
4.74
4.745
4.73
4.725
4.735
4.735
4.745
4.745
4.735
4.735
4.73
4.75
4.755
4.755
4.745
4.735
4.77
4.775
4.795
4.795
4.79
4.795
4.795
4.805
4.805
4.805
4.82
4.82
4.835
4.85
4.855
4.86
4.845
4.835
4.855
4.865
4.87
4.85
4.84
4.835
4.835
4.84
4.85
4.85
4.85
4.835
4.84
4.845
4.85
4.855
4.845
4.83
4.835
4.835
4.845
4.85
4.84
4.825
4.84
4.85
4.85
4.845
4.835
4.82
4.825
4.83
4.825
4.82
4.83
4.815
4.825
4.83
4.825
4.83
4.81
4.8
4.805
4.805
4.82
4.815
4.805
4.79
4.8
4.815
4.805
4.815
4.805
4.795
4.81
4.825
4.82
4.815
4.81
4.795
4.805
4.805
4.815
4.815
4.795
4.8
4.8
4.81
4.815
4.8
4.8
4.8
4.81
4.815
4.83
4.835
4.83
4.815
4.81
4.82
4.82
4.81
4.805
4.805
4.81
4.825
4.82
4.825
4.805
4.81
4.83
4.855
4.88
4.865
4.88
4.87
4.895
4.895
4.905
4.91
4.92
4.925
4.925
4.94
4.945
4.94
4.915
4.905
4.91
4.91
4.91
4.91
4.905
4.895
4.91
4.94
4.95
4.935
4.88
4.865
4.865
4.85
4.845
4.835
4.82
4.82
4.805
4.815
4.82
4.825
4.82
4.805
4.81
4.81
4.82
4.82
4.815
4.805
4.795
4.8
4.8
4.8
4.795
4.78
4.785
4.795
4.805
4.8
4.775
4.75
4.725
4.695
4.675
4.655
4.61
4.59
4.635
4.75
4.885
5.03
5.225
5.495
5.775
5.94
5.985
5.855
5.57
5.18
4.85
4.69
4.66
4.705
4.735
4.755
4.765
4.765
4.775
4.77
4.77
4.76
4.775
4.78
4.78
4.785
4.785
4.765
4.775
4.78
4.785
4.78
4.77
4.755
4.76
4.755
4.77
4.775
4.755
4.76
4.77
4.765
4.77
4.765
4.77
4.76
4.785
4.785
4.79
4.78
4.77
4.77
4.775
4.785
4.775
4.765
4.765
4.75
4.765
4.77
4.775
4.755
4.755
4.75
4.755
4.765
4.775
4.775
4.775
4.78
4.785
4.795
4.785
4.775
4.77
4.77
4.765
4.765
4.76
4.77
4.76
4.755
4.775
4.775
4.79
4.77
4.775
4.765
4.77
4.78
4.785
4.77
4.755
4.74
4.735
4.765
4.76
4.765
4.75
4.735
4.75
4.75
4.77
4.775
4.755
4.755
4.76
4.775
4.79
4.79
4.79
4.785
4.805
4.81
4.835
4.83
4.83
4.82
4.84
4.845
4.86
4.86
4.85
4.855
4.865
4.87
4.875
4.875
4.865
4.855
4.86
4.865
4.88
4.87
4.865
4.845
4.845
4.855
4.85
4.845
4.84
4.83
4.84
4.845
4.85
4.85
4.84
4.83
4.84
4.835
4.845
4.83
4.84
4.83
4.84
4.835
4.845
4.84
4.825
4.815
4.82
4.82
4.815
4.805
4.8
4.81
4.81
4.82
4.81
4.81
4.8
4.795
4.81
4.8
4.81
4.81
4.805
4.795
4.805
4.815
4.805
4.81
4.8
4.795
4.795
4.8
4.815
4.815
4.82
4.805
4.82
4.81
4.805
4.815
4.81
4.8
4.81
4.82
4.825
4.82
4.805
4.795
4.795
4.815
4.81
4.83
4.805
4.795
4.8
4.83
4.84
4.86
4.86
4.855
4.86
4.87
4.89
4.9
4.9
4.885
4.9
4.915
4.915
4.91
4.91
4.89
4.88
4.89
4.895
4.885
4.87
4.855
4.86
4.875
4.905
4.905
4.875
4.84
4.845
4.845
4.825
4.81
4.795
4.78
4.78
4.795
4.805
4.81
4.805
4.79
4.79
4.795
4.795
4.785
4.775
4.77
4.77
4.77
4.775
4.77
4.755
4.76
4.77
4.765
4.775
4.775
4.77
4.755
4.74
4.715
4.695
4.68
4.65
4.6
4.58
4.63
4.73
4.86
5.005
5.205
5.48
5.735
5.9
5.955
5.84
5.53
5.15
4.865
4.705
4.65
4.655
4.685
4.725
4.745
4.75
4.745
4.745
4.73
4.72
4.74
4.735
4.735
4.735
4.735
4.75
4.75
4.76
4.74
4.74
4.735
4.75
4.75
4.755
4.745
4.735
4.73
4.73
4.735
4.735
4.725
4.73
4.72
4.715
4.73
4.725
4.73
4.715
4.715
4.72
4.745
4.74
4.73
4.725
4.725
4.73
4.73
4.735
4.715
4.72
4.715
4.725
4.73
4.725
4.73
4.72
4.715
4.715
4.73
4.73
4.725
4.72
4.72
4.725
4.74
4.75
4.74
4.735
4.725
4.73
4.74
4.74
4.735
4.73
4.73
4.72
4.72
4.715
4.705
4.7
4.69
4.69
4.695
4.7
4.69
4.675
4.655
4.665
4.68
4.695
4.685
4.67
4.68
4.675
4.695
4.695
4.695
4.69
4.69
4.705
4.705
4.735
4.745
4.735
4.75
4.76
4.77
4.785
4.785
4.795
4.8
4.795
4.815
4.825
4.82
4.83
4.825
4.83
4.83
4.835
4.835
4.835
4.83
4.83
4.835
4.85
4.85
4.84
4.83
4.835
4.845
4.845
4.845
4.83
4.815
4.815
4.82
4.84
4.83
4.815
4.805
4.81
4.825
4.83
4.82
4.815
4.815
4.81
4.82
4.825
4.815
4.815
4.805
4.81
4.81
4.825
4.82
4.815
4.81
4.815
4.815
4.825
4.82
4.805
4.795
4.8
4.8
4.805
4.81
4.795
4.785
4.79
4.8
4.8
4.81
4.79
4.79
4.795
4.81
4.815
4.815
4.8
4.79
4.795
4.82
4.81
4.815
4.805
4.79
4.79
4.79
4.8
4.795
4.795
4.785
4.795
4.805
4.81
4.805
4.8
4.795
4.805
4.81
4.815
4.81
4.805
4.8
4.805
4.81
4.825
4.825
4.815
4.81
4.82
4.84
4.845
4.855
4.845
4.845
4.86
4.88
4.88
4.885
4.88
4.885
4.895
4.905
4.915
4.915
4.91
4.905
4.9
4.9
4.905
4.9
4.9
4.89
4.89
4.88
4.91
4.9
4.89
4.865
4.885
4.91
4.93
4.915
4.895
4.86
4.845
4.84
4.835
4.815
4.8
4.805
4.785
4.795
4.785
4.8
4.795
4.8
4.795
4.795
4.81
4.815
4.8
4.8
4.79
4.8
4.8
4.79
4.79
4.76
4.765
4.79
4.795
4.795
4.785
4.77
4.78
4.775
4.765
4.735
4.695
4.67
4.65
4.635
4.61
4.605
4.665
4.795
4.955
5.13
5.37
5.635
5.86
6.005
6.055
5.955
5.645
5.24
4.89
4.695
4.665
4.7
4.74
4.76
4.755
4.745
4.74
4.765
4.765
4.75
4.745
4.735
4.74
4.755
4.75
4.75
4.755
4.74
4.75
4.745
4.755
4.75
4.74
4.745
4.755
4.76
4.76
4.765
4.765
4.75
4.755
4.765
4.77
4.77
4.77
4.76
4.76
4.76
4.77
4.765
4.755
4.75
4.76
4.77
4.765
4.77
4.765
4.75
4.745
4.76
4.77
4.775
4.77
4.75
4.75
4.765
4.77
4.775
4.76
4.75
4.755
4.76
4.77
4.765
4.755
4.755
4.75
4.755
4.77
4.77
4.76
4.76
4.765
4.775
4.77
4.775
4.765
4.75
4.755
4.765
4.76
4.755
4.755
4.74
4.735
4.745
4.75
4.745
4.735
4.725
4.745
4.735
4.74
4.75
4.735
4.735
4.74
4.75
4.76
4.77
4.785
4.79
4.805
4.825
4.83
4.83
4.835
4.83
4.84
4.84
4.86
4.865
4.85
4.845
4.86
4.87
4.875
4.87
4.86
4.855
4.875
4.885
4.875
4.88
4.87
4.855
4.87
4.87
4.87
4.87
4.865
4.855
4.86
4.88
4.87
4.875
4.87
4.85
4.855
4.85
4.855
4.855
4.845
4.835
4.845
4.855
4.85
4.85
4.84
4.835
4.835
4.84
4.835
4.84
4.835
4.82
4.83
4.835
4.85
4.84
4.825
4.83
4.83
4.825
4.83
4.835
4.815
4.805
4.81
4.81
4.83
4.825
4.81
4.8
4.805
4.81
4.82
4.82
4.805
4.8
4.805
4.8
4.83
4.82
4.82
4.805
4.81
4.82
4.82
4.83
4.81
4.795
4.805
4.815
4.815
4.815
4.805
4.795
4.8
4.81
4.82
4.825
4.805
4.8
4.815
4.82
4.83
4.825
4.825
4.81
4.825
4.825
4.835
4.825
4.825
4.81
4.82
4.835
4.84
4.845
4.84
4.855
4.875
4.89
4.88
4.88
4.88
4.875
4.9
4.9
4.905
4.92
4.92
4.91
4.915
4.925
4.915
4.91
4.905
4.895
4.895
4.92
4.92
4.91
4.895
4.9
4.925
4.94
4.945
4.915
4.875
4.855
4.845
4.84
4.835
4.82
4.81
4.795
4.8
4.795
4.81
4.795
4.79
4.78
4.785
4.79
4.795
4.8
4.78
4.775
4.78
4.79
4.785
4.79
4.78
4.78
4.785
4.785
4.79
4.785
4.775
4.745
4.725
4.69
4.68
4.67
4.67
4.645
4.64
4.61
4.57
4.545
4.575
4.63
4.745
4.87
5
5.18
5.405
5.645
5.86
5.98
6.01
5.85
5.545
5.135
4.835
4.685
4.67
4.685
4.735
4.74
4.75
4.75
4.75
4.76
4.76
4.75
4.735
4.755
4.76
4.755
4.755
4.745
4.735
4.76
4.755
4.765
4.745
4.74
4.745
4.765
4.765
4.76
4.755
4.74
4.75
4.765
4.77
4.765
4.755
4.74
4.755
4.765
4.765
4.755
4.735
4.73
4.745
4.765
4.755
4.76
4.765
4.755
4.755
4.765
4.775
4.775
4.755
4.76
4.745
4.765
4.76
4.755
4.755
4.75
4.76
4.765
4.76
4.755
4.735
4.74
4.755
4.765
4.785
4.76
4.76
4.735
4.74
4.745
4.76
4.76
4.755
4.745
4.755
4.765
4.76
4.77
4.76
4.75
4.75
4.755
4.75
4.74
4.73
4.735
4.74
4.75
4.75
4.755
4.755
4.73
4.745
4.75
4.765
4.755
4.76
4.75
4.77
4.78
4.795
4.8
4.805
4.795
4.81
4.825
4.835
4.83
4.83
4.845
4.85
4.855
4.86
4.86
4.845
4.845
4.835
4.86
4.86
4.855
4.85
4.84
4.845
4.865
4.865
4.875
4.865
4.86
4.865
4.865
4.86
4.855
4.84
4.825
4.83
4.845
4.84
4.84
4.84
4.835
4.835
4.84
4.85
4.835
4.82
4.81
4.82
4.83
4.84
4.82
4.83
4.81
4.82
4.825
4.83
4.835
4.825
4.795
4.805
4.81
4.815
4.82
4.805
4.79
4.8
4.8
4.805
4.8
4.795
4.785
4.79
4.795
4.81
4.805
4.805
4.785
4.8
4.81
4.805
4.81
4.8
4.785
4.795
4.795
4.805
4.81
4.8
4.79
4.8
4.8
4.81
4.79
4.79
4.775
4.78
4.79
4.8
4.805
4.785
4.785
4.79
4.81
4.81
4.805
4.79
4.8
4.805
4.82
4.835
4.84
4.855
4.86
4.855
4.86
4.865
4.86
4.87
4.865
4.88
4.89
4.915
4.91
4.895
4.885
4.895
4.895
4.89
4.895
4.88
4.88
4.89
4.885
4.87
4.87
4.865
4.885
4.9
4.915
4.905
4.88
4.855
4.84
4.84
4.85
4.85
4.83
4.8
4.785
4.78
4.79
4.79
4.785
4.77
4.76
4.77
4.77
4.775
4.77
4.765
4.755
4.76
4.765
4.77
4.78
4.76
4.75
4.75
4.765
4.775
4.77
4.75
4.735
4.71
4.68
4.66
4.63
4.58
4.555
4.57
4.635
4.755
4.865
4.995
5.21
5.48
5.72
5.87
5.915
5.82
5.56
5.215
4.935
4.75
4.65
4.63
4.65
4.68
4.695
4.71
4.71
4.71
4.7
4.72
4.725
4.715
4.71
4.715
4.7
4.725
4.725
4.73
4.725
4.725
4.71
4.72
4.72
4.71
4.72
4.715
4.71
4.71
4.72
4.73
4.73
4.72
4.72
4.725
4.73
4.735
4.73
4.71
4.71
4.71
4.705
4.71
4.715
4.7
4.7
4.7
4.705
4.71
4.705
4.695
4.695
4.7
4.695
4.7
4.71
4.71
4.705
4.71
4.71
4.72
4.715
4.715
4.695
4.7
4.71
4.72
4.715
4.705
4.7
4.71
4.71
4.72
4.71
4.705
4.7
4.71
4.72
4.73
4.72
4.705
4.7
4.705
4.705
4.72
4.705
4.69
4.67
4.68
4.68
4.685
4.685
4.68
4.67
4.685
4.68
4.69
4.68
4.675
4.675
4.68
4.685
4.7
4.705
4.71
4.715
4.74
4.745
4.75
4.75
4.75
4.76
4.765
4.795
4.815
4.81
4.8
4.795
4.795
4.805
4.82
4.815
4.8
4.79
4.79
4.81
4.81
4.81
4.815
4.81
4.8
4.815
4.82
4.82
4.815
4.8
4.8
4.805
4.805
4.81
4.79
4.785
4.785
4.8
4.805
4.805
4.795
4.79
4.785
4.8
4.82
4.82
4.8
4.8
4.79
4.8
4.8
4.795
4.78
4.765
4.775
4.77
4.775
4.775
4.76
4.76
4.775
4.78
4.78
4.765
4.77
4.77
4.765
4.78
4.785
4.78
4.77
4.765
4.765
4.765
4.775
4.775
4.77
4.76
4.755
4.755
4.77
4.77
4.76
4.75
4.76
4.77
4.785
4.77
4.77
4.775
4.78
4.78
4.78
4.78
4.775
4.77
4.76
4.77
4.785
4.775
4.77
4.77
4.765
4.78
4.785
4.79
4.78
4.765
4.765
4.79
4.805
4.805
4.805
4.8
4.82
4.82
4.84
4.855
4.84
4.835
4.855
4.885
4.89
4.89
4.875
4.865
4.87
4.875
4.87
4.865
4.855
4.85
4.83
4.84
4.845
4.86
4.865
4.86
4.845
4.825
4.82
4.815
4.785
4.765
4.77
4.77
4.77
4.765
4.75
4.75
4.76
4.755
4.765
4.755
4.745
4.735
4.74
4.745
4.765
4.75
4.735
4.73
4.73
4.75
4.76
4.75
4.74
4.735
4.74
4.745
4.75
4.74
4.715
4.675
4.655
4.64
4.635
4.595
4.565
4.585
4.67
4.795
4.935
5.095
5.305
5.55
5.78
5.935
5.97
5.87
5.605
5.23
4.91
4.73
4.66
4.635
4.65
4.67
4.695
4.705
4.715
4.705
4.705
4.7
4.72
4.725
4.735
4.725
4.72
4.7
4.71
4.72
4.72
4.715
4.715
4.685
4.7
4.71
4.715
4.705
4.69
4.68
4.685
4.705
4.7
4.69
4.705
4.69
4.695
4.7
4.7
4.705
4.695
4.695
4.7
4.71
4.71
4.71
4.7
4.69
4.7
4.705
4.725
4.715
4.705
4.69
4.7
4.7
4.705
4.7
4.695
4.68
4.69
4.695
4.705
4.7
4.695
4.68
4.69
4.69
4.695
4.7
4.705
4.695
4.69
4.695
4.705
4.715
4.715
4.695
4.705
4.7
4.7
4.7
4.685
4.685
4.68
4.7
4.69
4.67
4.665
4.655
4.655
4.655
4.655
4.655
4.65
4.63
4.635
4.66
4.665
4.66
4.665
4.665
4.68
4.695
4.705
4.72
4.715
4.72
4.735
4.755
4.755
4.76
4.75
4.745
4.765
4.78
4.79
4.79
4.79
4.78
4.785
4.8
4.815
4.805
4.8
4.8
4.8
4.805
4.81
4.81
4.805
4.79
4.8
4.8
4.81
4.8
4.79
4.78
4.79
4.795
4.795
4.8
4.78
4.77
4.78
4.8
4.805
4.795
4.78
4.775
4.775
4.78
4.79
4.785
4.775
4.76
4.765
4.78
4.79
4.785
4.775
4.755
4.75
4.77
4.78
4.785
4.76
4.765
4.78
4.785
4.785
4.8
4.785
4.765
4.77
4.775
4.78
4.785
4.77
4.75
4.76
4.765
4.77
4.775
4.755
4.76
4.76
4.77
4.775
4.765
4.765
4.755
4.76
4.775
4.775
4.77
4.765
4.76
4.765
4.77
4.785
4.785
4.765
4.775
4.78
4.79
4.78
4.775
4.77
4.765
4.77
4.785
4.79
4.79
4.79
4.79
4.815
4.835
4.845
4.84
4.835
4.83
4.845
4.86
4.875
4.88
4.88
4.88
4.885
4.895
4.9
4.89
4.88
4.865
4.865
4.88
4.88
4.87
4.85
4.85
4.88
4.89
4.895
4.855
4.825
4.815
4.795
4.805
4.795
4.79
4.775
4.76
4.755
4.765
4.775
4.78
4.785
4.76
4.765
4.775
4.785
4.765
4.77
4.745
4.745
4.755
4.755
4.77
4.75
4.74
4.755
4.75
4.765
4.75
4.74
4.735
4.735
4.72
4.69
4.655
4.635
4.6
4.565
4.595
4.685
4.815
4.965
5.13
5.38
5.655
5.88
6.01
6.025
5.825
5.48
5.09
4.8
4.665
4.645
4.68
4.725
4.74
4.74
4.735
4.725
4.72
4.715
4.725
4.71
4.73
4.725
4.715
4.715
4.725
4.735
4.735
4.715
4.715
4.72
4.735
4.74
4.735
4.715
4.71
4.72
4.725
4.735
4.725
4.71
4.715
4.715
4.725
4.73
4.725
4.725
4.715
4.71
4.72
4.735
4.725
4.72
4.725
4.735
4.735
4.745
4.745
4.74
4.725
4.735
4.73
4.735
4.74
4.73
4.72
4.72
4.73
4.755
4.745
4.735
4.72
4.72
4.73
4.74
4.745
4.735
4.725
4.74
4.75
4.755
4.755
4.745
4.735
4.745
4.745
4.755
4.75
4.745
4.72
4.725
4.715
4.75
4.735
4.72
4.71
4.72
4.725
4.745
4.74
4.735
4.715
4.735
4.745
4.75
4.755
4.755
4.77
4.765
4.8
4.81
4.81
4.815
4.81
4.83
4.84
4.84
4.85
4.84
4.835
4.84
4.835
4.855
4.85
4.845
4.83
4.83
4.845
4.845
4.85
4.845
4.83
4.835
4.835
4.86
4.86
4.845
4.835
4.845
4.855
4.85
4.84
4.83
4.825
4.82
4.84
4.84
4.845
4.83
4.82
4.815
4.835
4.835
4.835
4.825
4.82
4.82
4.825
4.84
4.825
4.83
4.815
4.815
4.82
4.835
4.835
4.81
4.805
4.815
4.815
4.825
4.82
4.8
4.785
4.8
4.8
4.81
4.805
4.81
4.79
4.8
4.81
4.815
4.815
4.805
4.805
4.805
4.815
4.815
4.82
4.81
4.81
4.81
4.81
4.825
4.82
4.795
4.795
4.79
4.8
4.81
4.815
4.805
4.79
4.8
4.81
4.815
4.82
4.825
4.8
4.81
4.82
4.845
4.85
4.86
4.87
4.885
4.89
4.895
4.89
4.89
4.88
4.89
4.895
4.915
4.915
4.92
4.91
4.925
4.92
4.93
4.92
4.91
4.895
4.895
4.9
4.9
4.9
4.89
4.87
4.875
4.89
4.915
4.935
4.925
4.895
4.87
4.865
4.855
4.845
4.815
4.8
4.795
4.795
4.79
4.79
4.795
4.785
4.78
4.785
4.8
4.785
4.775
4.765
4.77
4.765
4.77
4.775
4.78
4.765
4.77
4.78
4.78
4.78
4.765
4.72
4.685
4.665
4.65
4.62
4.58
4.575
4.655
4.765
4.91
5.085
5.305
5.555
5.795
5.94
5.945
5.76
5.44
5.05
4.78
4.675
4.675
4.71
4.74
4.745
4.745
4.75
4.755
4.76
4.75
4.745
4.75
4.76
4.77
4.765
4.755
4.74
4.74
4.75
4.755
4.755
4.74
4.735
4.73
4.74
4.745
4.745
4.74
4.73
4.74
4.745
4.75
4.755
4.745
4.735
4.755
4.76
4.77
4.765
4.765
4.75
4.755
4.77
4.76
4.755
4.755
4.745
4.745
4.765
4.765
4.75
4.745
4.74
4.735
4.75
4.75
4.76
4.75
4.745
4.755
4.765
4.775
4.76
4.765
4.755
4.76
4.775
4.785
4.785
4.765
4.765
4.77
4.78
4.77
4.77
4.765
4.755
4.76
4.755
4.755
4.755
4.75
4.745
4.74
4.755
4.77
4.76
4.755
4.74
4.745
4.75
4.76
4.755
4.745
4.74
4.745
4.76
4.765
4.765
4.765
4.77
4.77
4.78
4.79
4.795
4.785
4.785
4.79
4.81
4.82
4.825
4.815
4.81
4.835
4.835
4.855
4.85
4.835
4.83
4.845
4.85
4.865
4.855
4.855
4.845
4.85
4.86
4.87
4.86
4.85
4.84
4.83
4.83
4.84
4.84
4.83
4.815
4.82
4.82
4.825
4.82
4.83
4.82
4.81
4.81
4.825
4.825
4.82
4.8
4.805
4.805
4.82
4.81
4.815
4.805
4.815
4.815
4.815
4.82
4.815
4.81
4.805
4.805
4.805
4.8
4.785
4.775
4.785
4.81
4.795
4.8
4.79
4.795
4.795
4.8
4.8
4.805
4.795
4.775
4.785
4.795
4.795
4.79
4.785
4.78
4.785
4.795
4.8
4.805
4.785
4.775
4.785
4.795
4.795
4.8
4.795
4.785
4.8
4.8
4.81
4.81
4.8
4.79
4.78
4.795
4.815
4.815
4.83
4.83
4.85
4.855
4.855
4.86
4.86
4.85
4.845
4.86
4.875
4.885
4.89
4.875
4.88
4.89
4.88
4.895
4.88
4.875
4.88
4.9
4.9
4.89
4.875
4.865
4.88
4.905
4.895
4.865
4.835
4.81
4.81
4.79
4.785
4.77
4.77
4.76
4.765
4.78
4.78
4.785
4.77
4.76
4.76
4.775
4.775
4.77
4.77
4.76
4.77
4.77
4.775
4.765
4.765
4.75
4.745
4.73
4.695
4.665
4.645
4.62
4.58
4.55
4.61
4.705
4.785
4.86
4.97
5.115
5.325
5.59
5.8
5.945
6.045
6.09
6.005
5.81
5.535
5.225
4.97
4.775
4.685
4.655
4.665
4.695
4.705
4.725
4.745
4.75
4.725
4.72
4.72
4.71
4.72
4.715
4.72
4.715
4.725
4.73
4.74
4.735
4.715
4.7
4.715
4.72
4.73
4.74
4.725
4.725
4.72
4.73
4.71
4.715
4.71
4.71
4.725
4.735
4.725
4.715
4.7
4.685
4.705
4.715
4.71
4.72
4.71
4.705
4.71
4.72
4.715
4.73
4.73
4.72
4.73
4.73
4.73
4.725
4.7
4.7
4.705
4.71
4.725
4.725
4.72
4.705
4.705
4.72
4.72
4.735
4.73
4.71
4.725
4.73
4.74
4.745
4.73
4.715
4.7
4.705
4.705
4.705
4.685
4.655
4.665
4.655
4.66
4.675
4.665
4.655
4.645
4.665
4.66
4.67
4.665
4.65
4.665
4.68
4.7
4.705
4.7
4.71
4.71
4.75
4.76
4.77
4.77
4.775
4.785
4.8
4.82
4.8
4.805
4.78
4.795
4.82
4.82
4.82
4.81
4.79
4.81
4.815
4.82
4.815
4.805
4.79
4.81
4.815
4.81
4.815
4.81
4.81
4.81
4.82
4.815
4.81
4.81
4.8
4.805
4.79
4.805
4.8
4.78
4.78
4.785
4.79
4.8
4.8
4.795
4.77
4.78
4.785
4.785
4.775
4.77
4.76
4.76
4.775
4.785
4.785
4.785
4.775
4.785
4.785
4.79
4.785
4.785
4.77
4.775
4.765
4.775
4.775
4.765
4.755
4.76
4.765
4.775
4.775
4.775
4.76
4.775
4.78
4.785
4.78
4.775
4.75
4.75
4.76
4.78
4.77
4.755
4.765
4.77
4.78
4.78
4.765
4.765
4.77
4.77
4.785
4.78
4.78
4.79
4.77
4.805
4.82
4.83
4.845
4.84
4.835
4.845
4.85
4.865
4.88
4.87
4.865
4.88
4.895
4.895
4.88
4.865
4.86
4.845
4.86
4.875
4.865
4.855
4.84
4.85
4.87
4.885
4.89
4.875
4.85
4.84
4.84
4.83
4.805
4.785
4.765
4.765
4.765
4.76
4.76
4.745
4.74
4.76
4.765
4.77
4.775
4.75
4.75
4.765
4.765
4.77
4.775
4.765
4.765
4.76
4.765
4.765
4.765
4.76
4.745
4.75
4.73
4.695
4.655
4.63
4.595
4.56
4.56
4.625
4.76
4.9
5.075
5.31
5.595
5.845
6.015
6.015
5.83
5.47
5.065
4.77
4.64
4.63
4.655
4.705
4.715
4.725
4.715
4.7
4.725
4.705
4.72
4.73
4.735
4.725
4.715
4.725
4.72
4.73
4.73
4.72
4.705
4.715
4.73
4.74
4.74
4.715
4.73
4.72
4.73
4.74
4.74
4.715
4.72
4.71
4.72
4.725
4.72
4.72
4.715
4.73
4.74
4.735
4.735
4.73
4.715
4.72
4.72
4.73
4.73
4.71
4.71
4.715
4.72
4.71
4.715
4.71
4.705
4.71
4.715
4.725
4.715
4.72
4.72
4.725
4.715
4.74
4.735
4.73
4.71
4.725
4.73
4.74
4.735
4.715
4.715
4.715
4.72
4.71
4.71
4.705
4.685
4.69
4.705
4.7
4.7
4.68
4.68
4.685
4.685
4.685
4.69
4.675
4.675
4.7
4.695
4.71
4.715
4.72
4.71
4.74
4.75
4.77
4.78
4.765
4.775
4.78
4.805
4.8
4.82
4.82
4.805
4.815
4.82
4.84
4.83
4.83
4.82
4.825
4.825
4.84
4.835
4.83
4.825
4.835
4.84
4.845
4.855
4.84
4.825
4.84
4.84
4.845
4.83
4.825
4.81
4.83
4.83
4.845
4.85
4.825
4.805
4.81
4.82
4.825
4.83
4.82
4.805
4.815
4.82
4.83
4.81
4.805
4.79
4.81
4.815
4.825
4.825
4.815
4.795
4.805
4.805
4.81
4.82
4.805
4.785
4.795
4.795
4.805
4.81
4.8
4.785
4.795
4.81
4.815
4.815
4.8
4.795
4.805
4.81
4.82
4.805
4.795
4.8
4.8
4.8
4.81
4.81
4.81
4.805
4.815
4.835
4.825
4.815
4.81
4.805
4.82
4.805
4.815
4.815
4.795
4.795
4.805
4.82
4.825
4.81
4.805
4.8
4.805
4.81
4.825
4.835
4.85
4.87
4.875
4.89
4.9
4.895
4.885
4.89
4.9
4.915
4.93
4.93
4.93
4.915
4.915
4.915
4.91
4.905
4.895
4.89
4.895
4.9
4.9
4.88
4.88
4.89
4.915
4.925
4.925
4.9
4.875
4.845
4.86
4.845
4.835
4.82
4.82
4.81
4.81
4.8
4.8
4.795
4.785
4.775
4.785
4.785
4.79
4.785
4.775
4.76
4.775
4.785
4.775
4.775
4.765
4.76
4.765
4.78
4.78
4.77
4.77
4.765
4.765
4.765
4.75
4.695
4.655
4.64
4.62
4.59
4.585
4.635
4.725
4.865
5.025
5.215
5.47
5.75
5.965
6.075
6.095
5.945
5.6
5.175
4.85
4.665
4.635
4.68
4.715
4.745
4.745
4.73
4.74
4.76
4.765
4.775
4.755
4.745
4.75
4.75
4.765
4.75
4.745
4.74
4.735
4.74
4.74
4.74
4.735
4.725
4.725
4.73
4.735
4.74
4.74
4.725
4.73
4.74
4.75
4.745
4.735
4.74
4.745
4.755
4.76
4.755
4.755
4.735
4.75
4.755
4.765
4.735
4.725
4.725
4.735
4.75
4.74
4.75
4.745
4.73
4.735
4.74
4.75
4.75
4.735
4.735
4.74
4.735
4.75
4.745
4.745
4.74
4.74
4.765
4.76
4.755
4.75
4.74
4.75
4.745
4.76
4.75
4.74
4.735
4.745
4.745
4.75
4.75
4.735
4.72
4.725
4.735
4.725
4.74
4.72
4.72
4.72
4.73
4.73
4.735
4.72
4.72
4.735
4.74
4.74
4.735
4.735
4.715
4.725
4.74
4.75
4.75
4.74
4.755
4.765
4.785
4.795
4.8
4.8
4.79
4.805
4.82
4.825
4.835
4.825
4.83
4.835
4.85
4.86
4.855
4.845
4.84
4.845
4.85
4.85
4.86
4.85
4.84
4.835
4.845
4.855
4.85
4.835
4.835
4.835
4.845
4.84
4.845
4.835
4.825
4.825
4.835
4.84
4.85
4.835
4.845
4.83
4.835
4.84
4.83
4.82
4.81
4.81
4.81
4.82
4.82
4.805
4.795
4.805
4.815
4.81
4.81
4.805
4.79
4.795
4.8
4.8
4.805
4.795
4.79
4.785
4.795
4.8
4.8
4.805
4.8
4.81
4.81
4.82
4.815
4.8
4.78
4.785
4.79
4.8
4.79
4.79
4.785
4.78
4.785
4.795
4.78
4.775
4.78
4.78
4.795
4.78
4.785
4.78
4.77
4.78
4.79
4.79
4.795
4.785
4.78
4.785
4.805
4.805
4.81
4.8
4.79
4.8
4.815
4.81
4.815
4.825
4.8
4.815
4.83
4.835
4.835
4.835
4.835
4.855
4.87
4.87
4.87
4.87
4.87
4.87
4.89
4.905
4.895
4.895
4.89
4.89
4.895
4.905
4.905
4.89
4.87
4.88
4.89
4.89
4.88
4.87
4.865
4.9
4.92
4.92
4.895
4.855
4.83
4.83
4.82
4.81
4.795
4.785
4.78
4.77
4.78
4.78
4.775
4.79
4.77
4.775
4.775
4.78
4.77
4.765
4.765
4.765
4.775
4.78
4.78
4.765
4.76
4.76
4.765
4.775
4.775
4.76
4.75
4.745
4.75
4.74
4.7
4.655
4.635
4.605
4.575
4.545
4.575
4.67
4.795
4.925
5.075
5.285
5.545
5.775
5.93
5.995
5.935
5.71
5.34
4.97
4.74
4.65
4.655
4.695
4.735
4.745
4.725
4.735
4.745
4.765
4.75
4.76
4.755
4.75
4.75
4.76
4.755
4.745
4.74
4.75
4.75
4.75
4.74
4.735
4.725
4.73
4.74
4.745
4.745
4.725
4.72
4.725
4.75
4.75
4.75
4.755
4.73
4.735
4.745
4.76
4.74
4.73
4.73
4.735
4.745
4.745
4.745
4.74
4.73
4.74
4.755
4.74
4.74
4.735
4.73
4.73
4.74
4.74
4.735
4.725
4.72
4.735
4.74
4.76
4.75
4.745
4.75
4.735
4.75
4.755
4.76
4.755
4.745
4.74
4.755
4.75
4.76
4.75
4.725
4.735
4.735
4.73
4.73
4.73
4.71
4.73
4.74
4.73
4.74
4.725
4.715
4.715
4.725
4.73
4.73
4.71
4.705
4.73
4.74
4.73
4.735
4.73
4.73
4.74
4.76
4.765
4.775
4.78
4.775
4.79
4.8
4.805
4.82
4.815
4.8
4.82
4.845
4.845
4.845
4.845
4.84
4.835
4.845
4.845
4.84
4.825
4.815
4.815
4.82
4.83
4.835
4.825
4.81
4.82
4.82
4.825
4.82
4.815
4.81
4.805
4.815
4.81
4.81
4.805
4.8
4.815
4.83
4.835
4.825
4.82
4.805
4.81
4.805
4.8
4.8
4.79
4.78
4.8
4.81
4.8
4.8
4.79
4.775
4.78
4.79
4.79
4.8
4.79
4.795
4.795
4.8
4.805
4.8
4.79
4.775
4.8
4.805
4.805
4.8
4.795
4.785
4.78
4.79
4.795
4.805
4.785
4.775
4.78
4.795
4.8
4.79
4.775
4.78
4.79
4.78
4.795
4.805
4.81
4.795
4.805
4.79
4.805
4.8
4.795
4.79
4.79
4.805
4.81
4.815
4.81
4.81
4.82
4.835
4.845
4.85
4.85
4.84
4.855
4.865
4.87
4.875
4.87
4.875
4.895
4.905
4.9
4.9
4.89
4.885
4.88
4.88
4.89
4.895
4.88
4.85
4.87
4.865
4.885
4.895
4.905
4.88
4.86
4.845
4.835
4.805
4.8
4.775
4.77
4.77
4.76
4.755
4.765
4.76
4.76
4.76
4.77
4.775
4.765
4.745
4.755
4.77
4.775
4.78
4.785
4.765
4.755
4.77
4.775
4.775
4.765
4.75
4.75
4.755
4.76
4.735
4.705
4.665
4.655
4.66
4.645
4.625
4.565
4.535
4.57
4.66
4.775
4.915
5.08
5.31
5.575
5.8
5.96
6
5.845
5.52
5.12
4.84
4.685
4.61
4.635
4.66
4.69
4.715
4.71
4.71
4.705
4.715
4.705
4.725
4.73
4.725
4.715
4.71
4.71
4.725
4.73
4.72
4.72
4.725
4.72
4.735
4.735
4.725
4.71
4.7
4.71
4.72
4.73
4.71
4.705
4.695
4.695
4.715
4.72
4.695
4.705
4.705
4.71
4.715
4.72
4.71
4.715
4.705
4.71
4.72
4.725
4.72
4.715
4.715
4.705
4.715
4.72
4.715
4.71
4.7
4.705
4.72
4.725
4.72
4.705
4.7
4.71
4.72
4.725
4.72
4.705
4.71
4.705
4.705
4.715
4.71
4.7
4.68
4.69
4.69
4.695
4.685
4.685
4.68
4.67
4.67
4.67
4.655
4.65
4.635
4.655
4.665
4.67
4.67
4.65
4.635
4.66
4.675
4.685
4.695
4.69
4.69
4.705
4.735
4.755
4.745
4.76
4.76
4.77
4.785
4.785
4.795
4.785
4.785
4.785
4.81
4.81
4.805
4.805
4.8
4.805
4.825
4.825
4.82
4.815
4.79
4.795
4.805
4.795
4.8
4.79
4.785
4.785
4.79
4.815
4.795
4.795
4.795
4.795
4.81
4.815
4.805
4.795
4.79
4.795
4.795
4.78
4.78
4.78
4.775
4.78
4.795
4.79
4.8
4.795
4.78
4.78
4.785
4.78
4.77
4.765
4.76
4.77
4.775
4.775
4.76
4.765
4.75
4.755
4.77
4.76
4.77
4.76
4.75
4.76
4.765
4.775
4.775
4.77
4.77
4.775
4.785
4.79
4.78
4.775
4.77
4.775
4.775
4.78
4.78
4.775
4.76
4.77
4.775
4.785
4.775
4.775
4.765
4.775
4.785
4.795
4.8
4.815
4.815
4.82
4.835
4.84
4.855
4.845
4.85
4.875
4.88
4.89
4.885
4.89
4.875
4.875
4.88
4.87
4.865
4.865
4.85
4.855
4.855
4.855
4.865
4.87
4.885
4.89
4.87
4.86
4.84
4.815
4.78
4.79
4.785
4.79
4.775
4.77
4.76
4.76
4.76
4.755
4.755
4.765
4.755
4.76
4.76
4.76
4.765
4.745
4.745
4.755
4.76
4.75
4.76
4.74
4.73
4.735
4.735
4.755
4.745
4.745
4.72
4.725
4.69
4.66
4.64
4.61
4.55
4.535
4.605
4.735
4.88
5.035
5.245
5.525
5.795
5.985
6.055
5.96
5.675
5.26
4.92
4.715
4.635
4.635
4.67
4.735
4.735
4.735
4.73
4.735
4.725
4.73
4.735
4.735
4.73
4.725
4.73
4.73
4.725
4.74
4.735
4.73
4.715
4.72
4.725
4.73
4.73
4.73
4.715
4.745
4.73
4.74
4.73
4.735
4.73
4.735
4.75
4.755
4.755
4.74
4.73
4.73
4.735
4.745
4.74
4.73
4.73
4.725
4.745
4.735
4.735
4.72
4.73
4.735
4.735
4.745
4.74
4.725
4.715
4.735
4.74
4.745
4.74
4.74
4.73
4.73
4.74
4.765
4.765
4.75
4.735
4.745
4.735
4.745
4.73
4.73
4.72
4.72
4.735
4.73
4.73
4.715
4.705
4.715
4.715
4.715
4.71
4.695
4.69
4.7
4.715
4.71
4.71
4.71
4.71
4.72
4.735
4.75
4.745
4.76
4.755
4.765
4.785
4.805
4.805
4.81
4.805
4.825
4.83
4.85
4.835
4.83
4.83
4.84
4.845
4.865
4.85
4.845
4.845
4.84
4.865
4.875
4.86
4.865
4.855
4.86
4.86
4.88
4.87
4.86
4.845
4.855
4.86
4.86
4.835
4.835
4.84
4.835
4.835
4.855
4.84
4.845
4.825
4.825
4.84
4.845
4.84
4.835
4.81
4.815
4.84
4.83
4.835
4.83
4.82
4.81
4.825
4.825
4.83
4.805
4.81
4.81
4.805
4.815
4.81
4.8
4.795
4.81
4.815
4.81
4.815
4.805
4.805
4.815
4.815
4.82
4.82
4.805
4.8
4.815
4.825
4.82
4.815
4.82
4.8
4.81
4.815
4.825
4.82
4.81
4.795
4.805
4.805
4.82
4.82
4.81
4.8
4.805
4.815
4.82
4.82
4.82
4.82
4.835
4.86
4.875
4.88
4.875
4.87
4.88
4.875
4.89
4.9
4.89
4.885
4.89
4.915
4.92
4.925
4.91
4.905
4.915
4.915
4.915
4.91
4.895
4.89
4.895
4.9
4.9
4.905
4.92
4.93
4.93
4.915
4.895
4.87
4.85
4.82
4.815
4.8
4.8
4.795
4.785
4.78
4.785
4.775
4.79
4.79
4.775
4.775
4.77
4.785
4.785
4.785
4.78
4.775
4.78
4.8
4.795
4.795
4.785
4.775
4.77
4.725
4.69
4.66
4.615
4.575
4.545
4.56
4.665
4.79
4.885
4.99
5.12
5.28
5.47
5.665
5.82
5.935
6.05
6.155
6.17
6.04
5.69
5.235
4.875
4.7
4.695
4.73
4.765
4.76
4.755
4.765
4.77
4.76
4.755
4.73
4.735
4.745
4.75
4.75
4.74
4.725
4.735
4.745
4.755
4.75
4.735
4.72
4.735
4.735
4.75
4.745
4.735
4.725
4.73
4.75
4.76
4.76
4.755
4.75
4.75
4.755
4.765
4.76
4.75
4.74
4.74
4.755
4.75
4.755
4.74
4.73
4.74
4.74
4.755
4.755
4.745
4.735
4.735
4.745
4.76
4.765
4.75
4.745
4.75
4.75
4.765
4.755
4.76
4.735
4.735
4.74
4.76
4.755
4.745
4.74
4.75
4.75
4.75
4.76
4.735
4.725
4.74
4.745
4.755
4.745
4.735
4.73
4.745
4.75
4.75
4.75
4.75
4.735
4.74
4.735
4.75
4.75
4.75
4.74
4.75
4.775
4.78
4.795
4.785
4.795
4.815
4.825
4.825
4.82
4.82
4.815
4.825
4.84
4.835
4.845
4.855
4.84
4.845
4.865
4.855
4.86
4.855
4.835
4.835
4.845
4.86
4.855
4.835
4.835
4.83
4.845
4.845
4.855
4.845
4.815
4.83
4.835
4.835
4.845
4.825
4.82
4.84
4.84
4.85
4.84
4.825
4.82
4.81
4.805
4.815
4.815
4.785
4.785
4.8
4.8
4.81
4.8
4.79
4.79
4.79
4.79
4.81
4.805
4.8
4.785
4.79
4.805
4.81
4.805
4.79
4.78
4.785
4.78
4.815
4.8
4.79
4.78
4.785
4.8
4.8
4.79
4.79
4.785
4.795
4.805
4.8
4.805
4.8
4.81
4.81
4.81
4.815
4.82
4.81
4.81
4.82
4.835
4.83
4.845
4.845
4.845
4.85
4.865
4.88
4.875
4.88
4.875
4.875
4.9
4.915
4.93
4.925
4.93
4.92
4.925
4.92
4.91
4.905
4.9
4.91
4.91
4.92
4.91
4.9
4.905
4.9
4.885
4.895
4.895
4.9
4.92
4.915
4.89
4.87
4.86
4.835
4.82
4.805
4.79
4.795
4.785
4.78
4.775
4.79
4.8
4.8
4.795
4.785
4.785
4.785
4.79
4.79
4.785
4.77
4.765
4.77
4.775
4.78
4.77
4.76
4.73
4.72
4.685
4.655
4.64
4.605
4.55
4.54
4.6
4.72
4.87
5.025
5.22
5.515
5.78
5.95
6
5.88
5.58
5.19
4.88
4.695
4.635
4.64
4.69
4.72
4.725
4.72
4.72
4.725
4.73
4.745
4.755
4.75
4.735
4.725
4.715
4.73
4.73
4.735
4.74
4.725
4.72
4.74
4.74
4.745
4.735
4.725
4.715
4.72
4.725
4.725
4.74
4.725
4.73
4.725
4.72
4.73
4.735
4.73
4.72
4.73
4.74
4.74
4.735
4.74
4.735
4.75
4.745
4.75
4.75
4.745
4.735
4.735
4.745
4.735
4.74
4.72
4.715
4.72
4.735
4.74
4.745
4.725
4.715
4.715
4.725
4.73
4.74
4.735
4.725
4.745
4.745
4.74
4.735
4.745
4.735
4.735
4.745
4.74
4.72
4.715
4.705
4.71
4.705
4.72
4.71
4.71
4.705
4.705
4.705
4.705
4.705
4.695
4.675
4.69
4.7
4.705
4.72
4.71
4.715
4.735
4.745
4.77
4.77
4.77
4.765
4.785
4.79
4.815
4.81
4.795
4.795
4.805
4.805
4.81
4.81
4.815
4.805
4.8
4.81
4.815
4.815
4.815
4.81
4.825
4.825
4.83
4.835
4.835
4.815
4.815
4.825
4.83
4.825
4.825
4.815
4.815
4.82
4.82
4.82
4.8
4.8
4.795
4.8
4.8
4.815
4.795
4.8
4.805
4.8
4.81
4.805
4.81
4.805
4.805
4.805
4.815
4.81
4.805
4.795
4.79
4.79
4.795
4.795
4.79
4.77
4.77
4.79
4.795
4.79
4.77
4.76
4.77
4.78
4.79
4.79
4.79
4.77
4.77
4.78
4.795
4.8
4.79
4.785
4.77
4.78
4.775
4.78
4.79
4.785
4.78
4.8
4.795
4.79
4.77
4.77
4.785
4.8
4.81
4.815
4.825
4.825
4.845
4.85
4.865
4.855
4.87
4.87
4.87
4.895
4.9
4.9
4.89
4.87
4.87
4.87
4.885
4.89
4.875
4.88
4.885
4.885
4.89
4.865
4.86
4.845
4.855
4.865
4.89
4.895
4.88
4.85
4.835
4.825
4.815
4.8
4.765
4.755
4.76
4.755
4.765
4.765
4.76
4.755
4.755
4.765
4.775
4.765
4.75
4.735
4.75
4.77
4.77
4.775
4.76
4.75
4.75
4.76
4.775
4.76
4.755
4.735
4.73
4.715
4.69
4.67
4.65
4.605
4.57
4.555
4.615
4.7
4.825
4.99
5.2
5.48
5.74
5.955
6.04
5.95
5.665
5.28
4.94
4.725
4.63
4.605
4.65
4.695
4.71
4.71
4.705
4.71
4.715
4.725
4.725
4.725
4.715
4.71
4.72
4.715
4.725
4.72
4.71
4.7
4.705
4.705
4.715
4.71
4.69
4.675
4.675
4.695
4.705
4.7
4.7
4.695
4.7
4.695
4.71
4.705
4.685
4.68
4.685
4.705
4.705
4.71
4.71
4.7
4.69
4.685
4.695
4.7
4.7
4.695
4.695
4.695
4.7
4.695
4.695
4.695
4.7
4.705
4.705
4.705
4.7
4.69
4.695
4.7
4.705
4.7
4.7
4.69
4.7
4.7
4.71
4.715
4.695
4.685
4.68
4.7
4.705
4.69
4.68
4.67
4.67
4.675
4.675
4.675
4.655
4.645
4.63
4.64
4.645
4.64
4.635
4.63
4.635
4.645
4.665
4.655
4.66
4.65
4.665
4.67
4.685
4.69
4.69
4.7
4.705
4.73
4.735
4.745
4.745
4.745
4.76
4.775
4.785
4.79
4.775
4.78
4.785
4.79
4.795
4.8
4.79
4.785
4.795
4.8
4.81
4.815
4.795
4.79
4.795
4.8
4.815
4.8
4.8
4.78
4.795
4.795
4.79
4.79
4.775
4.765
4.77
4.79
4.795
4.785
4.785
4.76
4.77
4.775
4.765
4.76
4.77
4.75
4.77
4.765
4.77
4.77
4.77
4.755
4.765
4.76
4.77
4.76
4.755
4.745
4.755
4.745
4.755
4.74
4.74
4.725
4.735
4.745
4.75
4.745
4.745
4.735
4.745
4.745
4.76
4.75
4.745
4.74
4.745
4.755
4.76
4.76
4.755
4.74
4.74
4.745
4.765
4.755
4.75
4.735
4.745
4.76
4.755
4.755
4.74
4.74
4.75
4.76
4.76
4.77
4.76
4.755
4.77
4.775
4.785
4.795
4.8
4.79
4.8
4.82
4.82
4.825
4.815
4.825
4.835
4.85
4.85
4.865
4.855
4.85
4.845
4.855
4.845
4.85
4.835
4.825
4.825
4.835
4.845
4.84
4.82
4.83
4.835
4.865
4.88
4.85
4.82
4.78
4.78
4.77
4.76
4.74
4.73
4.715
4.72
4.735
4.735
4.735
4.715
4.71
4.715
4.73
4.72
4.725
4.705
4.705
4.715
4.725
4.73
4.73
4.715
4.705
4.705
4.72
4.715
4.69
4.64
4.595
4.57
4.55
4.525
4.475
4.48
4.55
4.68
4.785
4.87
4.97
5.105
5.28
5.53
5.785
5.975
6.075
6.03
5.765
5.335
4.925
4.675
4.58
4.61
4.635
4.685
4.675
4.68
4.68
4.68
4.67
4.665
4.665
4.67
4.665
4.66
4.65
4.655
4.67
4.68
4.67
4.675
4.66
4.66
4.68
4.675
4.675
4.67
4.665
4.67
4.665
4.685
4.665
4.67
4.665
4.665
4.675
4.68
4.685
4.685
4.67
4.675
4.69
4.68
4.67
4.67
4.665
4.66
4.68
4.685
4.675
4.665
4.66
4.665
4.68
4.675
4.68
4.67
4.655
4.67
4.665
4.68
4.68
4.67
4.645
4.665
4.67
4.67
4.68
4.68
4.665
4.68
4.68
4.685
4.68
4.675
4.665
4.67
4.68
4.685
4.67
4.675
4.665
4.67
4.675
4.675
4.665
4.65
4.65
4.64
4.655
4.665
4.665
4.655
4.65
4.65
4.665
4.665
4.66
4.67
4.665
4.675
4.685
4.71
4.7
4.7
4.695
4.71
4.73
4.75
4.75
4.745
4.74
4.76
4.77
4.77
4.785
4.78
4.765
4.765
4.78
4.79
4.775
4.77
4.775
4.775
4.79
4.805
4.795
4.78
4.78
4.78
4.78
4.785
4.775
4.77
4.75
4.77
4.775
4.785
4.765
4.755
4.76
4.755
4.76
4.77
4.765
4.765
4.745
4.745
4.75
4.765
4.765
4.745
4.745
4.735
4.755
4.76
4.755
4.73
4.73
4.735
4.74
4.735
4.73
4.73
4.715
4.73
4.725
4.73
4.725
4.71
4.705
4.705
4.715
4.725
4.715
4.705
4.7
4.71
4.7
4.72
4.72
4.715
4.705
4.7
4.72
4.725
4.735
4.715
4.71
4.71
4.715
4.725
4.715
4.71
4.71
4.705
4.705
4.715
4.725
4.715
4.71
4.71
4.72
4.725
4.725
4.725
4.715
4.73
4.75
4.755
4.765
4.765
4.765
4.77
4.78
4.79
4.795
4.78
4.775
4.775
4.795
4.82
4.815
4.815
4.8
4.82
4.805
4.825
4.815
4.8
4.79
4.8
4.82
4.825
4.81
4.795
4.8
4.82
4.84
4.825
4.79
4.755
4.735
4.73
4.725
4.725
4.71
4.7
4.68
4.69
4.7
4.705
4.71
4.69
4.685
4.69
4.69
4.7
4.7
4.68
4.675
4.69
4.69
4.695
4.69
4.69
4.675
4.68
4.665
4.69
4.68
4.665
4.64
4.61
4.575
4.555
4.54
4.485
4.455
4.49
4.61
4.765
4.92
5.095
5.36
5.66
5.875
5.965
5.915
5.67
5.24
4.835
4.6
4.535
4.56
4.6
4.62
4.65
4.645
4.65
4.66
4.64
4.635
4.635
4.65
4.655
4.645
4.64
4.63
4.635
4.645
4.65
4.645
4.63
4.625
4.625
4.625
4.64
4.63
4.635
4.625
4.63
4.635
4.64
4.645
4.635
4.63
4.635
4.64
4.645
4.635
4.635
4.61
4.625
4.63
4.635
4.645
4.645
4.625
4.645
4.645
4.645
4.65
4.625
4.625
4.625
4.63
4.65
4.635
4.625
4.615
4.625
4.63
4.63
4.64
4.63
4.62
4.625
4.63
4.645
4.64
4.63
4.62
4.64
4.635
4.645
4.64
4.64
4.64
4.65
4.655
4.66
4.645
4.645
4.64
4.63
4.64
4.65
4.64
4.625
4.615
4.615
4.635
4.635
4.635
4.625
4.615
4.615
4.63
4.635
4.62
4.63
4.62
4.64
4.65
4.675
4.67
4.67
4.67
4.695
4.715
4.735
4.735
4.725
4.73
4.735
4.745
4.75
4.745
4.735
4.73
4.73
4.735
4.75
4.75
4.73
4.735
4.735
4.735
4.745
4.745
4.74
4.73
4.75
4.74
4.755
4.75
4.745
4.73
4.74
4.755
4.755
4.75
4.745
4.725
4.73
4.73
4.74
4.73
4.715
4.705
4.705
4.71
4.725
4.725
4.71
4.7
4.71
4.705
4.72
4.7
4.695
4.69
4.69
4.695
4.71
4.71
4.71
4.695
4.695
4.71
4.71
4.7
4.7
4.675
4.67
4.685
4.69
4.69
4.68
4.67
4.675
4.68
4.7
4.7
4.69
4.675
4.675
4.685
4.695
4.695
4.675
4.67
4.675
4.685
4.695
4.7
4.69
4.69
4.69
4.7
4.715
4.705
4.7
4.695
4.695
4.7
4.695
4.7
4.695
4.68
4.68
4.695
4.7
4.7
4.705
4.695
4.72
4.74
4.755
4.75
4.75
4.755
4.765
4.775
4.79
4.8
4.8
4.79
4.795
4.805
4.805
4.805
4.795
4.78
4.775
4.785
4.795
4.785
4.765
4.74
4.76
4.775
4.815
4.825
4.805
4.785
4.755
4.75
4.745
4.735
4.715
4.69
4.69
4.69
4.69
4.685
4.67
4.66
4.66
4.66
4.665
4.67
4.67
4.655
4.65
4.65
4.66
4.645
4.64
4.63
4.64
4.655
4.655
4.64
4.635
4.625
4.625
4.63
4.63
4.595
4.565
4.52
4.51
4.5
4.465
4.44
4.465
4.545
4.675
4.81
4.99
5.245
5.515
5.72
5.845
5.835
5.65
5.305
4.925
4.665
4.53
4.505
4.535
4.575
4.585
4.585
4.585
4.595
4.615
4.605
4.615
4.605
4.605
4.63
4.625
4.62
4.63
4.6
4.61
4.6
4.615
4.615
4.615
4.605
4.605
4.62
4.61
4.605
4.595
4.59
4.595
4.585
4.6
4.595
4.6
4.59
4.6
4.6
4.61
4.605
4.61
4.59
4.59
4.6
4.61
4.615
4.595
4.59
4.595
4.61
4.625
4.62
4.61
4.6
4.6
4.605
4.615
4.62
4.61
4.6
4.615
4.605
4.61
4.6
4.615
4.615
4.605
4.595
4.62
4.625
4.625
4.615
4.625
4.63
4.645
4.63
4.625
4.61
4.615
4.62
4.62
4.62
4.615
4.605
4.615
4.615
4.605
4.61
4.595
4.585
4.585
4.58
4.6
4.58
4.58
4.56
4.57
4.58
4.575
4.58
4.575
4.57
4.565
4.59
4.6
4.605
4.62
4.615
4.615
4.635
4.655
4.65
4.66
4.66
4.665
4.685
4.69
4.695
4.69
4.68
4.68
4.685
4.71
4.71
4.705
4.7
4.71
4.72
4.725
4.73
4.715
4.71
4.715
4.73
4.72
4.715
4.705
4.705
4.705
4.71
4.72
4.71
4.71
4.695
4.705
4.725
4.715
4.72
4.705
4.7
4.695
4.71
4.72
4.715
4.7
4.7
4.705
4.71
4.71
4.7
4.695
4.68
4.685
4.69
4.69
4.69
4.69
4.675
4.67
4.685
4.695
4.7
4.695
4.69
4.665
4.67
4.68
4.69
4.68
4.68
4.68
4.69
4.7
4.705
4.695
4.67
4.665
4.67
4.675
4.685
4.685
4.67
4.67
4.675
4.69
4.695
4.67
4.66
4.675
4.68
4.695
4.7
4.675
4.67
4.685
4.695
4.71
4.7
4.68
4.675
4.685
4.69
4.69
4.695
4.69
4.695
4.71
4.71
4.74
4.755
4.75
4.72
4.73
4.75
4.765
4.77
4.76
4.74
4.75
4.765
4.79
4.795
4.795
4.79
4.8
4.8
4.805
4.8
4.78
4.765
4.77
4.78
4.78
4.76
4.75
4.735
4.75
4.78
4.795
4.785
4.74
4.73
4.71
4.7
4.7
4.68
4.67
4.66
4.675
4.665
4.685
4.675
4.67
4.66
4.655
4.66
4.665
4.665
4.655
4.64
4.655
4.665
4.665
4.65
4.65
4.645
4.635
4.65
4.64
4.66
4.64
4.635
4.635
4.625
4.595
4.58
4.55
4.525
4.485
4.45
4.49
4.58
4.705
4.84
5.04
5.285
5.555
5.795
5.92
5.95
5.78
5.465
5.08
4.77
4.59
4.515
4.495
4.53
4.575
4.6
4.61
4.59
4.605
4.62
4.625
4.625
4.615
4.615
4.615
4.625
4.62
4.62
4.62
4.6
4.615
4.625
4.625
4.62
4.61
4.605
4.61
4.62
4.64
4.62
4.615
4.6
4.605
4.615
4.63
4.61
4.615
4.62
4.615
4.63
4.64
4.63
4.635
4.62
4.62
4.63
4.635
4.625
4.615
4.615
4.61
4.62
4.63
4.63
4.62
4.61
4.605
4.625
4.625
4.63
4.605
4.61
4.615
4.625
4.625
4.635
4.63
4.61
4.625
4.635
4.64
4.64
4.625
4.61
4.6
4.61
4.615
4.605
4.6
4.58
4.58
4.6
4.59
4.585
4.58
4.565
4.565
4.58
4.58
4.575
4.58
4.57
4.58
4.59
4.59
4.595
4.595
4.6
4.61
4.625
4.64
4.655
4.65
4.655
4.665
4.68
4.705
4.705
4.71
4.71
4.73
4.73
4.74
4.74
4.73
4.725
4.735
4.74
4.755
4.745
4.735
4.745
4.74
4.75
4.755
4.75
4.74
4.72
4.725
4.73
4.735
4.725
4.72
4.71
4.71
4.72
4.73
4.725
4.725
4.715
4.715
4.725
4.735
4.72
4.71
4.71
4.71
4.72
4.735
4.725
4.725
4.72
4.715
4.73
4.735
4.715
4.705
4.7
4.705
4.71
4.71
4.715
4.7
4.685
4.69
4.69
4.7
4.71
4.695
4.68
4.675
4.705
4.705
4.7
4.7
4.675
4.695
4.71
4.705
4.7
4.71
4.7
4.715
4.72
4.73
4.73
4.725
4.71
4.715
4.725
4.725
4.725
4.715
4.7
4.7
4.715
4.725
4.73
4.71
4.705
4.705
4.71
4.73
4.73
4.72
4.725
4.725
4.745
4.75
4.775
4.77
4.78
4.79
4.8
4.82
4.815
4.8
4.8
4.81
4.835
4.845
4.84
4.83
4.825
4.815
4.82
4.82
4.81
4.805
4.795
4.815
4.815
4.805
4.805
4.81
4.815
4.845
4.865
4.86
4.825
4.795
4.78
4.77
4.77
4.76
4.745
4.74
4.715
4.72
4.715
4.73
4.715
4.705
4.695
4.7
4.705
4.7
4.71
4.695
4.695
4.69
4.71
4.71
4.72
4.7
4.69
4.695
4.705
4.69
4.67
4.63
4.58
4.57
4.55
4.525
4.515
4.565
4.695
4.865
5.04
5.28
5.565
5.825
6.005
6.125
6.165
6.095
5.86
5.47
5.05
4.715
4.57
4.56
4.585
4.62
4.665
4.665
4.675
4.675
4.68
4.665
4.655
4.655
4.655
4.655
4.655
4.64
4.635
4.64
4.65
4.65
4.66
4.66
4.645
4.645
4.65
4.665
4.665
4.66
4.66
4.66
4.665
4.67
4.67
4.665
4.645
4.655
4.655
4.67
4.67
4.665
4.64
4.65
4.675
4.685
4.68
4.67
4.66
4.66
4.675
4.69
4.695
4.67
4.66
4.665
4.67
4.68
4.675
4.68
4.67
4.675
4.68
4.685
4.67
4.67
4.665
4.665
4.66
4.67
4.685
4.655
4.655
4.67
4.685
4.69
4.685
4.67
4.655
4.655
4.66
4.665
4.665
4.66
4.65
4.65
4.66
4.67
4.665
4.66
4.645
4.66
4.66
4.67
4.67
4.675
4.675
4.685
4.695
4.7
4.705
4.725
4.715
4.735
4.735
4.75
4.76
4.76
4.76
4.765
4.765
4.785
4.785
4.775
4.78
4.785
4.8
4.8
4.795
4.795
4.785
4.79
4.795
4.795
4.785
4.77
4.76
4.755
4.775
4.785
4.77
4.77
4.765
4.76
4.775
4.79
4.79
4.775
4.765
4.765
4.78
4.775
4.77
4.76
4.75
4.745
4.76
4.755
4.76
4.755
4.74
4.745
4.755
4.755
4.755
4.745
4.73
4.735
4.745
4.75
4.75
4.745
4.73
4.74
4.75
4.775
4.76
4.75
4.735
4.745
4.745
4.75
4.75
4.725
4.72
4.735
4.73
4.74
4.735
4.74
4.725
4.73
4.735
4.745
4.745
4.74
4.73
4.74
4.745
4.745
4.755
4.75
4.75
4.765
4.76
4.77
4.785
4.77
4.77
4.78
4.8
4.825
4.825
4.815
4.805
4.82
4.835
4.835
4.835
4.835
4.85
4.845
4.86
4.875
4.87
4.86
4.85
4.84
4.84
4.855
4.855
4.855
4.845
4.85
4.865
4.88
4.89
4.88
4.845
4.81
4.815
4.8
4.79
4.77
4.75
4.745
4.755
4.75
4.75
4.75
4.74
4.735
4.74
4.75
4.76
4.75
4.735
4.745
4.745
4.74
4.74
4.725
4.72
4.72
4.73
4.73
4.73
4.725
4.705
4.695
4.685
4.645
4.62
4.595
4.55
4.515
4.525
4.62
4.76
4.89
5.065
5.32
5.62
5.85
5.975
5.955
5.74
5.345
4.96
4.705
4.595
4.605
4.65
4.685
4.705
4.705
4.71
4.715
4.705
4.7
4.705
4.72
4.705
4.7
4.69
4.7
4.715
4.71
4.72
4.705
4.69
4.7
4.695
4.715
4.71
4.7
4.685
4.69
4.695
4.705
4.7
4.695
4.685
4.695
4.7
4.71
4.71
4.7
4.695
4.705
4.715
4.72
4.715
4.72
4.71
4.7
4.715
4.725
4.705
4.71
4.69
4.695
4.705
4.705
4.71
4.7
4.69
4.695
4.71
4.71
4.72
4.715
4.705
4.7
4.715
4.72
4.73
4.72
4.72
4.715
4.725
4.73
4.715
4.72
4.69
4.69
4.7
4.705
4.715
4.695
4.685
4.69
4.695
4.705
4.695
4.695
4.68
4.685
4.705
4.705
4.695
4.69
4.685
4.71
4.725
4.735
4.745
4.74
4.735
4.74
4.755
4.775
4.775
4.76
4.755
4.775
4.78
4.795
4.795
4.79
4.78
4.785
4.795
4.81
4.815
4.81
4.785
4.79
4.8
4.805
4.81
4.81
4.805
4.815
4.815
4.825
4.82
4.805
4.79
4.79
4.805
4.815
4.795
4.785
4.785
4.78
4.785
4.8
4.78
4.765
4.77
4.76
4.77
4.78
4.785
4.775
4.76
4.77
4.77
4.775
4.775
4.765
4.755
4.76
4.76
4.765
4.76
4.75
4.745
4.735
4.745
4.75
4.74
4.735
4.735
4.74
4.74
4.75
4.75
4.745
4.75
4.75
4.76
4.76
4.765
4.74
4.72
4.725
4.73
4.74
4.74
4.73
4.735
4.75
4.745
4.755
4.76
4.755
4.74
4.74
4.75
4.745
4.74
4.73
4.725
4.73
4.765
4.77
4.76
4.745
4.735
4.74
4.745
4.77
4.765
4.765
4.765
4.775
4.79
4.805
4.81
4.795
4.805
4.82
4.835
4.855
4.865
4.85
4.855
4.855
4.865
4.865
4.855
4.845
4.83
4.845
4.845
4.835
4.825
4.82
4.83
4.85
4.845
4.825
4.81
4.775
4.755
4.75
4.73
4.735
4.725
4.71
4.705
4.715
4.725
4.72
4.715
4.72
4.715
4.71
4.73
4.725
4.725
4.705
4.69
4.69
4.705
4.71
4.715
4.71
4.71
4.7
4.71
4.705
4.695
4.665
4.62
4.61
4.6
4.6
4.55
4.505
4.465
4.48
4.55
4.645
4.76
4.885
5.08
5.36
5.635
5.83
5.915
5.84
5.555
5.185
4.87
4.675
4.585
4.57
4.61
4.64
4.67
4.67
4.675
4.68
4.665
4.67
4.67
4.68
4.68
4.675
4.67
4.665
4.675
4.685
4.69
4.68
4.665
4.675
4.675
4.68
4.685
4.66
4.66
4.665
4.655
4.67
4.675
4.65
4.635
4.655
4.66
4.66
4.67
4.67
4.65
4.66
4.665
4.68
4.685
4.675
4.67
4.685
4.68
4.675
4.675
4.67
4.67
4.68
4.685
4.68
4.675
4.665
4.645
4.66
4.67
4.685
4.68
4.675
4.665
4.67
4.685
4.685
4.67
4.67
4.66
4.665
4.68
4.69
4.695
4.685
4.66
4.655
4.675
4.68
4.68
4.65
4.64
4.63
4.64
4.645
4.635
4.63
4.625
4.63
4.63
4.63
4.625
4.625
4.61
4.625
4.625
4.645
4.645
4.655
4.645
4.655
4.69
4.71
4.715
4.725
4.715
4.725
4.75
4.765
4.755
4.75
4.75
4.74
4.75
4.765
4.76
4.75
4.75
4.765
4.78
4.795
4.795
4.78
4.775
4.76
4.775
4.775
4.765
4.765
4.755
4.75
4.755
4.75
4.75
4.745
4.745
4.755
4.76
4.765
4.765
4.765
4.745
4.74
4.735
4.755
4.755
4.745
4.74
4.735
4.735
4.75
4.74
4.72
4.71
4.72
4.735
4.745
4.74
4.73
4.71
4.72
4.725
4.73
4.73
4.73
4.72
4.72
4.73
4.735
4.73
4.725
4.725
4.72
4.72
4.735
4.73
4.72
4.72
4.73
4.74
4.75
4.75
4.74
4.715
4.73
4.73
4.74
4.74
4.74
4.73
4.74
4.74
4.745
4.74
4.73
4.71
4.715
4.725
4.725
4.735
4.715
4.715
4.735
4.75
4.785
4.795
4.795
4.775
4.785
4.795
4.8
4.8
4.81
4.81
4.82
4.83
4.84
4.835
4.825
4.815
4.825
4.83
4.835
4.83
4.82
4.805
4.81
4.81
4.83
4.845
4.84
4.82
4.8
4.78
4.78
4.75
4.725
4.7
4.705
4.695
4.705
4.71
4.7
4.695
4.695
4.69
4.705
4.71
4.695
4.68
4.675
4.685
4.7
4.71
4.7
4.685
4.695
4.695
4.705
4.7
4.69
4.685
4.67
4.65
4.63
4.6
4.585
4.565
4.53
4.505
4.5
4.565
4.675
4.795
4.945
5.145
5.385
5.66
5.855
5.97
5.975
5.8
5.445
5.035
4.73
4.6
4.565
4.59
4.63
4.665
4.665
4.655
4.655
4.67
4.68
4.67
4.675
4.655
4.68
4.67
4.685
4.68
4.67
4.66
4.65
4.665
4.665
4.66
4.645
4.635
4.645
4.655
4.665
4.66
4.66
4.66
4.66
4.655
4.67
4.665
4.66
4.64
4.65
4.66
4.655
4.665
4.66
4.65
4.665
4.67
4.665
4.665
4.665
4.65
4.64
4.65
4.665
4.66
4.65
4.64
4.65
4.655
4.665
4.66
4.66
4.655
4.65
4.665
4.675
4.675
4.67
4.665
4.67
4.68
4.695
4.685
4.68
4.67
4.665
4.665
4.67
4.675
4.66
4.66
4.65
4.655
4.66
4.66
4.645
4.63
4.64
4.64
4.645
4.635
4.63
4.62
4.63
4.635
4.63
4.63
4.64
4.62
4.62
4.61
4.64
4.63
4.63
4.635
4.645
4.655
4.675
4.685
4.695
4.695
4.7
4.73
4.74
4.745
4.75
4.75
4.75
4.77
4.785
4.77
4.77
4.765
4.785
4.8
4.8
4.805
4.795
4.785
4.79
4.8
4.8
4.81
4.79
4.77
4.775
4.79
4.79
4.78
4.78
4.765
4.765
4.775
4.785
4.775
4.77
4.76
4.77
4.76
4.77
4.77
4.77
4.755
4.75
4.775
4.79
4.775
4.77
4.765
4.765
4.765
4.78
4.785
4.755
4.735
4.735
4.755
4.755
4.755
4.755
4.735
4.725
4.735
4.745
4.755
4.74
4.73
4.745
4.74
4.755
4.75
4.75
4.74
4.74
4.765
4.755
4.755
4.75
4.74
4.745
4.755
4.755
4.75
4.75
4.73
4.735
4.755
4.76
4.755
4.745
4.735
4.73
4.74
4.75
4.745
4.73
4.735
4.735
4.745
4.75
4.745
4.735
4.715
4.735
4.75
4.75
4.76
4.745
4.75
4.745
4.765
4.78
4.775
4.78
4.775
4.795
4.81
4.815
4.815
4.82
4.815
4.82
4.835
4.855
4.855
4.85
4.84
4.845
4.845
4.855
4.855
4.845
4.825
4.83
4.83
4.85
4.845
4.835
4.82
4.825
4.85
4.88
4.875
4.86
4.825
4.81
4.805
4.795
4.77
4.755
4.735
4.74
4.73
4.75
4.75
4.745
4.74
4.73
4.735
4.73
4.74
4.73
4.72
4.715
4.73
4.735
4.735
4.725
4.705
4.715
4.72
4.735
4.72
4.72
4.7
4.7
4.685
4.67
4.625
4.6
4.57
4.565
4.555
4.54
4.495
4.46
4.51
4.615
4.725
4.88
5.035
5.235
5.505
5.78
5.985
6.075
6.03
5.78
5.39
4.98
4.695
4.6
4.605
4.63
4.655
4.675
4.69
4.685
4.685
4.67
4.665
4.67
4.67
4.68
4.675
4.665
4.66
4.66
4.67
4.67
4.675
4.67
4.655
4.665
4.68
4.685
4.685
4.68
4.66
4.665
4.685
4.68
4.665
4.67
4.66
4.66
4.67
4.675
4.68
4.665
4.655
4.665
4.675
4.68
4.685
4.675
4.665
4.68
4.695
4.69
4.69
4.675
4.67
4.69
4.685
4.695
4.69
4.685
4.67
4.67
4.67
4.685
4.67
4.68
4.665
4.675
4.68
4.685
4.67
4.665
4.665
4.68
4.68
4.7
4.7
4.69
4.675
4.675
4.695
4.695
4.7
4.7
4.68
4.685
4.69
4.695
4.685
4.675
4.66
4.665
4.675
4.685
4.685
4.67
4.665
4.665
4.675
4.685
4.67
4.665
4.675
4.665
4.68
4.69
4.705
4.695
4.69
4.71
4.725
4.74
4.755
4.755
4.75
4.75
4.77
4.78
4.785
4.775
4.765
4.775
4.78
4.79
4.78
4.785
4.765
4.78
4.785
4.8
4.795
4.785
4.765
4.79
4.795
4.795
4.795
4.795
4.77
4.785
4.795
4.8
4.795
4.785
4.785
4.78
4.795
4.795
4.79
4.785
4.775
4.765
4.78
4.775
4.78
4.765
4.76
4.755
4.76
4.765
4.765
4.755
4.75
4.755
4.755
4.765
4.765
4.76
4.75
4.75
4.75
4.76
4.755
4.755
4.735
4.735
4.735
4.745
4.74
4.73
4.72
4.72
4.735
4.735
4.735
4.73
4.72
4.715
4.73
4.74
4.74
4.73
4.715
4.725
4.73
4.735
4.74
4.74
4.73
4.745
4.755
4.755
4.745
4.745
4.735
4.735
4.735
4.755
4.745
4.74
4.73
4.735
4.745
4.76
4.75
4.74
4.73
4.73
4.745
4.755
4.745
4.76
4.75
4.765
4.8
4.81
4.82
4.82
4.81
4.81
4.835
4.85
4.865
4.845
4.845
4.85
4.845
4.85
4.84
4.825
4.81
4.815
4.825
4.835
4.835
4.825
4.805
4.805
4.81
4.82
4.83
4.825
4.835
4.855
4.855
4.83
4.815
4.795
4.765
4.755
4.745
4.74
4.735
4.735
4.715
4.72
4.735
4.735
4.725
4.72
4.7
4.71
4.715
4.72
4.715
4.71
4.695
4.7
4.7
4.72
4.715
4.705
4.69
4.69
4.685
4.665
4.625
4.58
4.56
4.53
4.49
4.49
4.555
4.675
4.795
4.93
5.12
5.365
5.64
5.84
5.955
5.975
5.86
5.61
5.245
4.93
4.695
4.585
4.535
4.535
4.57
4.615
4.64
4.66
4.67
4.68
4.68
4.685
4.67
4.67
4.67
4.675
4.685
4.67
4.665
4.66
4.655
4.685
4.675
4.67
4.67
4.66
4.665
4.675
4.675
4.655
4.65
4.67
4.665
4.695
4.69
4.69
4.665
4.68
4.685
4.695
4.685
4.685
4.675
4.67
4.68
4.68
4.685
4.68
4.68
4.675
4.695
4.7
4.705
4.695
4.675
4.67
4.685
4.695
4.69
4.67
4.67
4.68
4.67
4.695
4.685
4.675
4.67
4.675
4.68
4.695
4.69
4.67
4.67
4.675
4.69
4.69
4.685
4.685
4.675
4.675
4.69
4.695
4.69
4.675
4.685
4.69
4.69
4.695
4.7
4.695
4.68
4.68
4.685
4.685
4.685
4.68
4.665
4.665
4.685
4.695
4.69
4.69
4.68
4.69
4.69
4.7
4.7
4.69
4.695
4.705
4.735
4.745
4.755
4.755
4.75
4.765
4.755
4.77
4.78
4.775
4.775
4.77
4.765
4.775
4.785
4.785
4.775
4.775
4.78
4.79
4.785
4.765
4.76
4.76
4.765
4.775
4.78
4.775
4.77
4.765
4.78
4.78
4.78
4.77
4.745
4.76
4.765
4.78
4.775
4.76
4.735
4.745
4.755
4.76
4.755
4.735
4.725
4.725
4.74
4.74
4.745
4.74
4.72
4.725
4.745
4.745
4.735
4.725
4.72
4.71
4.73
4.735
4.74
4.73
4.705
4.71
4.72
4.725
4.735
4.72
4.7
4.695
4.705
4.71
4.71
4.69
4.69
4.69
4.7
4.7
4.705
4.7
4.7
4.705
4.705
4.72
4.73
4.72
4.71
4.705
4.715
4.72
4.72
4.71
4.7
4.7
4.71
4.72
4.705
4.7
4.69
4.695
4.71
4.725
4.74
4.745
4.75
4.765
4.775
4.785
4.785
4.785
4.785
4.81
4.82
4.815
4.825
4.83
4.82
4.82
4.825
4.825
4.815
4.805
4.79
4.795
4.795
4.8
4.805
4.79
4.765
4.775
4.8
4.825
4.815
4.795
4.745
4.74
4.735
4.725
4.715
4.7
4.685
4.69
4.7
4.715
4.72
4.705
4.685
4.68
4.67
4.69
4.68
4.675
4.67
4.665
4.67
4.685
4.68
4.67
4.66
4.675
4.68
4.685
4.69
4.685
4.66
4.63
4.61
4.595
4.57
4.525
4.475
4.475
4.565
4.685
4.815
4.985
5.225
5.52
5.775
5.915
5.91
5.72
5.35
4.975
4.72
4.6
4.56
4.57
4.615
4.655
4.66
4.665
4.665
4.67
4.655
4.66
4.655
4.65
4.65
4.65
4.63
4.635
4.65
4.655
4.66
4.655
4.65
4.64
4.645
4.655
4.665
4.645
4.64
4.66
4.67
4.68
4.675
4.675
4.66
4.665
4.665
4.655
4.665
4.64
4.655
4.655
4.665
4.665
4.66
4.645
4.64
4.65
4.655
4.665
4.655
4.67
4.665
4.67
4.685
4.69
4.68
4.675
4.665
4.665
4.67
4.68
4.685
4.665
4.655
4.665
4.68
4.68
4.68
4.68
4.66
4.665
4.67
4.69
4.685
4.665
4.645
4.645
4.65
4.66
4.65
4.655
4.635
4.63
4.655
4.66
4.66
4.645
4.63
4.62
4.625
4.635
4.65
4.635
4.62
4.62
4.63
4.645
4.645
4.655
4.64
4.665
4.675
4.695
4.71
4.715
4.7
4.7
4.72
4.745
4.76
4.76
4.745
4.76
4.775
4.795
4.795
4.78
4.775
4.76
4.765
4.765
4.765
4.755
4.76
4.765
4.79
4.785
4.77
4.775
4.76
4.765
4.75
4.78
4.785
4.785
4.775
4.77
4.77
4.78
4.775
4.76
4.755
4.76
4.77
4.77
4.77
4.755
4.74
4.745
4.75
4.75
4.755
4.755
4.745
4.74
4.745
4.75
4.745
4.73
4.71
4.72
4.73
4.755
4.75
4.745
4.73
4.735
4.745
4.755
4.745
4.725
4.715
4.715
4.725
4.73
4.72
4.72
4.72
4.715
4.715
4.73
4.73
4.725
4.72
4.71
4.72
4.735
4.745
4.725
4.725
4.725
4.735
4.74
4.735
4.74
4.74
4.74
4.75
4.74
4.75
4.74
4.735
4.72
4.745
4.755
4.775
4.765
4.77
4.77
4.79
4.805
4.81
4.815
4.805
4.805
4.82
4.845
4.84
4.835
4.83
4.835
4.85
4.85
4.845
4.845
4.835
4.83
4.825
4.835
4.835
4.835
4.82
4.82
4.825
4.83
4.85
4.85
4.835
4.82
4.805
4.8
4.79
4.76
4.73
4.725
4.705
4.725
4.72
4.725
4.715
4.705
4.72
4.715
4.72
4.715
4.715
4.71
4.715
4.72
4.71
4.7
4.69
4.695
4.7
4.715
4.7
4.705
4.685
4.675
4.65
4.62
4.6
4.575
4.525
4.495
4.53
4.63
4.78
4.925
5.105
5.365
5.64
5.865
6.005
6
5.8
5.445
5.04
4.765
4.62
4.57
4.585
4.635
4.665
4.68
4.675
4.68
4.675
4.68
4.69
4.695
4.705
4.685
4.67
4.675
4.69
4.695
4.69
4.68
4.66
4.665
4.66
4.665
4.68
4.67
4.665
4.66
4.67
4.685
4.69
4.68
4.66
4.66
4.67
4.68
4.685
4.685
4.68
4.68
4.695
4.695
4.69
4.685
4.675
4.675
4.68
4.685
4.665
4.68
4.665
4.675
4.67
4.68
4.68
4.675
4.67
4.675
4.685
4.69
4.695
4.69
4.68
4.685
4.695
4.69
4.705
4.685
4.67
4.68
4.69
4.695
4.7
4.685
4.675
4.68
4.685
4.69
4.68
4.665
4.66
4.65
4.665
4.665
4.655
4.65
4.635
4.635
4.645
4.645
4.645
4.65
4.64
4.645
4.645
4.66
4.655
4.65
4.655
4.655
4.67
4.675
4.69
4.685
4.685
4.695
4.72
4.74
4.755
4.755
4.73
4.755
4.755
4.78
4.775
4.79
4.77
4.785
4.8
4.795
4.8
4.805
4.785
4.79
4.8
4.805
4.81
4.805
4.795
4.79
4.805
4.8
4.8
4.8
4.785
4.775
4.79
4.79
4.795
4.785
4.775
4.785
4.795
4.795
4.785
4.785
4.775
4.775
4.775
4.79
4.795
4.78
4.785
4.785
4.795
4.805
4.805
4.785
4.78
4.78
4.79
4.78
4.795
4.785
4.765
4.77
4.78
4.785
4.78
4.78
4.76
4.755
4.765
4.77
4.775
4.775
4.765
4.745
4.775
4.78
4.765
4.77
4.755
4.77
4.765
4.78
4.77
4.77
4.77
4.765
4.79
4.785
4.785
4.78
4.76
4.77
4.78
4.785
4.775
4.775
4.76
4.76
4.765
4.775
4.77
4.745
4.735
4.76
4.765
4.78
4.775
4.77
4.755
4.76
4.775
4.78
4.78
4.78
4.775
4.785
4.795
4.83
4.84
4.835
4.825
4.83
4.845
4.845
4.86
4.87
4.86
4.875
4.89
4.89
4.88
4.88
4.87
4.855
4.87
4.875
4.885
4.87
4.84
4.85
4.88
4.9
4.91
4.885
4.835
4.83
4.805
4.81
4.81
4.78
4.76
4.775
4.775
4.78
4.755
4.765
4.74
4.755
4.765
4.76
4.765
4.76
4.745
4.74
4.75
4.755
4.76
4.76
4.745
4.745
4.745
4.765
4.755
4.755
4.73
4.705
4.69
4.65
4.62
4.595
4.54
4.52
4.56
4.675
4.815
4.96
5.115
5.35
5.655
5.915
6.105
6.17
6.095
5.835
5.39
4.975
4.71
4.6
4.62
4.685
4.73
4.73
4.72
4.71
4.7
4.705
4.715
4.71
4.705
4.7
4.685
4.685
4.695
4.7
4.695
4.69
4.685
4.69
4.695
4.71
4.705
4.7
4.69
4.685
4.69
4.695
4.69
4.68
4.68
4.68
4.69
4.7
4.695
4.695
4.685
4.69
4.685
4.69
4.695
4.69
4.685
4.695
4.7
4.7
4.7
4.7
4.68
4.685
4.69
4.695
4.685
4.68
4.675
4.685
4.685
4.695
4.695
4.685
4.675
4.685
4.675
4.7
4.695
4.69
4.68
4.685
4.7
4.7
4.7
4.705
4.69
4.69
4.69
4.705
4.695
4.685
4.67
4.675
4.68
4.685
4.68
4.685
4.675
4.68
4.68
4.695
4.695
4.695
4.69
4.685
4.71
4.725
4.725
4.73
4.735
4.73
4.74
4.765
4.78
4.77
4.775
4.78
4.8
4.81
4.82
4.815
4.79
4.795
4.8
4.8
4.815
4.795
4.795
4.805
4.8
4.805
4.805
4.8
4.79
4.795
4.8
4.805
4.81
4.805
4.79
4.8
4.79
4.8
4.8
4.78
4.77
4.775
4.785
4.785
4.78
4.785
4.775
4.76
4.775
4.785
4.775
4.765
4.75
4.76
4.765
4.775
4.765
4.765
4.755
4.765
4.765
4.77
4.765
4.76
4.74
4.75
4.755
4.76
4.755
4.74
4.74
4.735
4.75
4.755
4.76
4.755
4.745
4.745
4.75
4.76
4.765
4.755
4.75
4.75
4.76
4.765
4.77
4.765
4.745
4.765
4.765
4.78
4.78
4.765
4.755
4.755
4.77
4.77
4.77
4.765
4.755
4.75
4.77
4.775
4.775
4.77
4.76
4.77
4.795
4.8
4.825
4.825
4.81
4.835
4.84
4.855
4.87
4.86
4.855
4.865
4.88
4.895
4.89
4.875
4.855
4.855
4.855
4.85
4.865
4.86
4.845
4.835
4.845
4.86
4.895
4.89
4.87
4.835
4.82
4.835
4.82
4.795
4.775
4.775
4.785
4.795
4.8
4.79
4.77
4.765
4.76
4.765
4.76
4.755
4.745
4.74
4.745
4.75
4.75
4.75
4.725
4.725
4.735
4.73
4.73
4.74
4.73
4.74
4.735
4.75
4.74
4.72
4.695
4.66
4.62
4.615
4.58
4.525
4.505
4.585
4.73
4.895
5.095
5.355
5.63
5.865
5.97
5.88
5.57
5.14
4.77
4.59
4.595
4.66
4.705
4.725
4.705
4.705
4.71
4.73
4.735
4.72
4.695
4.695
4.705
4.705
4.715
4.695
4.695
4.7
4.7
4.7
4.71
4.7
4.695
4.695
4.71
4.72
4.725
4.72
4.71
4.705
4.715
4.725
4.735
4.715
4.71
4.72
4.715
4.73
4.73
4.73
4.72
4.715
4.725
4.72
4.72
4.72
4.7
4.705
4.72
4.725
4.72
4.71
4.71
4.72
4.72
4.735
4.725
4.715
4.705
4.71
4.715
4.735
4.73
4.725
4.715
4.73
4.735
4.73
4.725
4.71
4.705
4.7
4.715
4.725
4.72
4.705
4.69
4.69
4.7
4.71
4.7
4.685
4.695
4.69
4.695
4.705
4.705
4.695
4.695
4.7
4.715
4.725
4.72
4.715
4.695
4.71
4.725
4.73
4.735
4.74
4.745
4.75
4.765
4.77
4.775
4.77
4.76
4.77
4.79
4.79
4.805
4.78
4.765
4.775
4.79
4.795
4.795
4.795
4.775
4.78
4.795
4.795
4.795
4.78
4.755
4.77
4.77
4.765
4.755
4.74
4.74
4.745
4.76
4.77
4.765
4.745
4.74
4.755
4.745
4.76
4.755
4.75
4.75
4.745
4.755
4.76
4.76
4.745
4.75
4.74
4.74
4.74
4.745
4.715
4.72
4.725
4.735
4.75
4.74
4.735
4.715
4.715
4.725
4.72
4.715
4.71
4.715
4.715
4.72
4.73
4.735
4.725
4.71
4.705
4.72
4.72
4.73
4.725
4.705
4.72
4.72
4.72
4.72
4.72
4.7
4.71
4.705
4.715
4.735
4.73
4.725
4.73
4.745
4.745
4.74
4.73
4.725
4.74
4.74
4.775
4.785
4.775
4.785
4.775
4.795
4.8
4.8
4.785
4.775
4.79
4.81
4.81
4.82
4.81
4.805
4.82
4.83
4.83
4.815
4.815
4.81
4.805
4.815
4.82
4.8
4.8
4.805
4.82
4.835
4.825
4.79
4.775
4.74
4.725
4.72
4.725
4.7
4.685
4.675
4.675
4.68
4.69
4.695
4.685
4.675
4.685
4.695
4.705
4.695
4.68
4.675
4.67
4.685
4.69
4.695
4.695
4.675
4.67
4.675
4.68
4.65
4.615
4.575
4.55
4.525
4.475
4.45
4.48
4.55
4.65
4.75
4.83
4.93
5.05
5.205
5.42
5.635
5.82
5.94
5.96
5.81
5.455
5.08
4.785
4.6
4.53
4.54
4.59
4.63
4.645
4.65
4.635
4.63
4.64
4.645
4.65
4.645
4.64
4.62
4.615
4.615
4.635
4.645
4.635
4.62
4.62
4.635
4.65
4.635
4.625
4.625
4.625
4.64
4.64
4.66
4.66
4.65
4.645
4.64
4.645
4.63
4.63
4.615
4.62
4.635
4.64
4.635
4.64
4.62
4.625
4.64
4.645
4.645
4.65
4.63
4.645
4.64
4.65
4.635
4.64
4.63
4.635
4.63
4.63
4.625
4.62
4.605
4.605
4.625
4.635
4.655
4.645
4.63
4.625
4.62
4.625
4.62
4.61
4.615
4.61
4.62
4.615
4.61
4.595
4.575
4.58
4.59
4.59
4.585
4.57
4.56
4.575
4.58
4.585
4.59
4.58
4.575
4.57
4.59
4.595
4.605
4.62
4.61
4.63
4.655
4.665
4.68
4.68
4.67
4.695
4.71
4.72
4.715
4.71
4.715
4.72
4.735
4.735
4.74
4.73
4.715
4.72
4.735
4.74
4.74
4.74
4.72
4.725
4.74
4.755
4.76
4.735
4.72
4.72
4.725
4.74
4.735
4.73
4.725
4.725
4.73
4.74
4.735
4.725
4.715
4.72
4.715
4.725
4.715
4.715
4.7
4.71
4.715
4.72
4.715
4.7
4.685
4.695
4.695
4.71
4.7
4.695
4.69
4.69
4.695
4.72
4.705
4.695
4.69
4.685
4.7
4.705
4.7
4.695
4.69
4.685
4.695
4.695
4.69
4.685
4.675
4.675
4.685
4.695
4.695
4.68
4.675
4.68
4.69
4.695
4.705
4.685
4.68
4.685
4.695
4.7
4.705
4.685
4.69
4.685
4.7
4.705
4.695
4.695
4.69
4.685
4.7
4.7
4.705
4.7
4.685
4.69
4.705
4.73
4.74
4.735
4.735
4.745
4.74
4.77
4.785
4.785
4.79
4.785
4.8
4.815
4.83
4.82
4.795
4.795
4.795
4.8
4.785
4.79
4.775
4.775
4.78
4.775
4.785
4.795
4.795
4.8
4.78
4.775
4.76
4.74
4.71
4.7
4.705
4.71
4.705
4.69
4.685
4.685
4.685
4.685
4.69
4.685
4.67
4.66
4.67
4.685
4.68
4.675
4.665
4.665
4.67
4.67
4.675
4.675
4.65
4.655
4.665
4.675
4.67
4.675
4.66
4.65
4.63
4.6
4.58
4.555
4.51
4.48
4.48
4.555
4.675
4.805
4.96
5.18
5.46
5.72
5.905
5.97
5.86
5.575
5.2
4.86
4.635
4.55
4.54
4.565
4.615
4.625
4.645
4.635
4.635
4.63
4.635
4.65
4.645
4.63
4.625
4.62
4.615
4.63
4.625
4.62
4.625
4.625
4.625
4.645
4.645
4.63
4.625
4.63
4.64
4.64
4.64
4.63
4.62
4.62
4.64
4.645
4.635
4.64
4.615
4.635
4.64
4.655
4.64
4.63
4.625
4.63
4.635
4.635
4.645
4.63
4.625
4.62
4.63
4.64
4.635
4.625
4.62
4.635
4.635
4.645
4.64
4.635
4.625
4.62
4.63
4.635
4.635
4.625
4.62
4.625
4.635
4.645
4.65
4.635
4.63
4.64
4.62
4.635
4.645
4.63
4.615
4.625
4.62
4.625
4.62
4.6
4.59
4.595
4.605
4.615
4.605
4.605
4.59
4.595
4.61
4.615
4.615
4.615
4.59
4.6
4.605
4.63
4.63
4.625
4.615
4.63
4.66
4.675
4.69
4.69
4.69
4.715
4.71
4.73
4.72
4.725
4.72
4.73
4.735
4.745
4.745
4.74
4.745
4.745
4.755
4.755
4.755
4.755
4.73
4.745
4.75
4.755
4.755
4.75
4.73
4.74
4.755
4.755
4.75
4.73
4.73
4.73
4.74
4.75
4.74
4.735
4.72
4.725
4.73
4.735
4.73
4.725
4.715
4.71
4.725
4.73
4.72
4.715
4.725
4.715
4.73
4.74
4.74
4.735
4.725
4.725
4.725
4.725
4.73
4.72
4.715
4.72
4.72
4.725
4.725
4.72
4.7
4.715
4.705
4.73
4.715
4.715
4.705
4.705
4.715
4.725
4.725
4.715
4.7
4.71
4.72
4.735
4.735
4.725
4.705
4.71
4.72
4.735
4.73
4.73
4.71
4.71
4.725
4.715
4.725
4.71
4.705
4.71
4.715
4.72
4.725
4.72
4.705
4.71
4.725
4.73
4.725
4.735
4.74
4.755
4.775
4.8
4.805
4.805
4.78
4.78
4.805
4.81
4.81
4.8
4.805
4.805
4.825
4.83
4.83
4.835
4.815
4.815
4.82
4.82
4.81
4.795
4.785
4.795
4.8
4.81
4.805
4.805
4.81
4.84
4.85
4.835
4.805
4.78
4.755
4.755
4.745
4.735
4.73
4.695
4.685
4.695
4.705
4.71
4.715
4.705
4.69
4.69
4.7
4.705
4.71
4.705
4.68
4.69
4.705
4.71
4.7
4.695
4.685
4.69
4.685
4.695
4.68
4.655
4.605
4.57
4.565
4.55
4.515
4.48
4.47
4.525
4.65
4.795
4.94
5.115
5.35
5.635
5.875
6.005
6.05
5.955
5.685
5.28
4.92
4.705
4.585
4.56
4.56
4.6
4.635
4.675
4.685
4.68
4.675
4.665
4.665
4.67
4.665
4.65
4.635
4.635
4.64
4.645
4.64
4.64
4.63
4.63
4.63
4.64
4.65
4.64
4.625
4.63
4.64
4.66
4.66
4.665
4.64
4.64
4.66
4.665
4.665
4.66
4.63
4.645
4.645
4.655
4.67
4.655
4.645
4.65
4.655
4.665
4.67
4.665
4.65
4.645
4.665
4.675
4.675
4.67
4.65
4.655
4.665
4.67
4.675
4.66
4.645
4.645
4.655
4.67
4.67
4.645
4.65
4.65
4.65
4.66
4.67
4.65
4.65
4.645
4.655
4.67
4.675
4.655
4.65
4.65
4.665
4.655
4.67
4.66
4.655
4.645
4.66
4.665
4.66
4.65
4.64
4.64
4.645
4.655
4.655
4.645
4.645
4.635
4.65
4.665
4.66
4.655
4.65
4.645
4.67
4.68
4.69
4.69
4.685
4.7
4.725
4.735
4.745
4.75
4.75
4.755
4.765
4.78
4.77
4.76
4.745
4.76
4.77
4.775
4.775
4.76
4.755
4.755
4.765
4.765
4.765
4.76
4.745
4.755
4.755
4.765
4.77
4.76
4.76
4.765
4.765
4.785
4.775
4.77
4.75
4.75
4.75
4.76
4.755
4.74
4.735
4.735
4.755
4.755
4.76
4.755
4.74
4.74
4.75
4.765
4.765
4.755
4.75
4.745
4.755
4.77
4.765
4.74
4.735
4.74
4.755
4.75
4.74
4.745
4.72
4.73
4.73
4.745
4.745
4.73
4.72
4.715
4.725
4.725
4.725
4.72
4.72
4.715
4.73
4.745
4.745
4.73
4.725
4.735
4.735
4.735
4.74
4.74
4.72
4.73
4.73
4.745
4.74
4.73
4.72
4.73
4.73
4.735
4.735
4.73
4.725
4.73
4.73
4.745
4.74
4.745
4.735
4.735
4.74
4.745
4.75
4.74
4.745
4.74
4.755
4.775
4.78
4.77
4.775
4.795
4.805
4.805
4.815
4.805
4.805
4.815
4.83
4.84
4.85
4.85
4.835
4.84
4.84
4.845
4.845
4.83
4.82
4.83
4.835
4.845
4.845
4.83
4.835
4.855
4.87
4.86
4.83
4.805
4.78
4.75
4.745
4.75
4.75
4.73
4.72
4.72
4.73
4.735
4.73
4.715
4.705
4.715
4.715
4.72
4.735
4.725
4.705
4.71
4.72
4.725
4.715
4.7
4.7
4.695
4.705
4.71
4.705
4.68
4.635
4.6
4.58
4.57
4.54
4.49
4.44
4.425
4.45
4.475
4.525
4.595
4.655
4.73
4.79
4.895
5.07
5.305
5.56
5.79
5.93
5.945
5.78
5.475
5.085
4.77
4.62
4.59
4.615
4.65
4.665
4.67
4.67
4.685
4.69
4.68
4.67
4.665
4.665
4.68
4.685
4.68
4.67
4.67
4.68
4.695
4.695
4.695
4.665
4.665
4.69
4.695
4.68
4.68
4.67
4.675
4.685
4.695
4.7
4.69
4.685
4.69
4.685
4.69
4.69
4.675
4.67
4.67
4.685
4.69
4.695
4.695
4.685
4.685
4.705
4.7
4.69
4.685
4.675
4.675
4.68
4.68
4.68
4.68
4.68
4.67
4.685
4.69
4.695
4.7
4.68
4.675
4.7
4.7
4.7
4.695
4.685
4.695
4.71
4.71
4.7
4.69
4.68
4.685
4.675
4.705
4.69
4.7
4.685
4.685
4.69
4.695
4.695
4.69
4.675
4.68
4.68
4.695
4.68
4.675
4.66
4.66
4.675
4.675
4.685
4.675
4.665
4.66
4.685
4.69
4.685
4.68
4.675
4.68
4.705
4.71
4.73
4.725
4.725
4.725
4.74
4.76
4.755
4.745
4.73
4.735
4.765
4.775
4.775
4.78
4.76
4.76
4.76
4.785
4.78
4.775
4.76
4.76
4.765
4.77
4.77
4.755
4.75
4.74
4.745
4.765
4.76
4.755
4.75
4.755
4.765
4.775
4.77
4.765
4.745
4.74
4.755
4.77
4.765
4.755
4.745
4.75
4.755
4.75
4.75
4.745
4.735
4.73
4.74
4.74
4.745
4.74
4.73
4.725
4.73
4.74
4.745
4.735
4.715
4.73
4.725
4.745
4.73
4.73
4.71
4.715
4.72
4.735
4.73
4.715
4.715
4.72
4.725
4.74
4.74
4.735
4.73
4.73
4.735
4.74
4.725
4.72
4.715
4.705
4.725
4.73
4.73
4.745
4.73
4.73
4.74
4.74
4.735
4.73
4.71
4.72
4.73
4.74
4.735
4.73
4.74
4.76
4.77
4.795
4.79
4.79
4.79
4.775
4.81
4.825
4.835
4.84
4.84
4.845
4.855
4.845
4.85
4.845
4.82
4.825
4.835
4.825
4.82
4.795
4.795
4.815
4.835
4.835
4.81
4.78
4.75
4.74
4.73
4.74
4.74
4.735
4.71
4.715
4.725
4.73
4.73
4.71
4.69
4.705
4.7
4.715
4.715
4.715
4.715
4.71
4.715
4.71
4.705
4.695
4.695
4.705
4.705
4.715
4.715
4.71
4.695
4.685
4.675
4.635
4.6
4.575
4.54
4.505
4.515
4.595
4.74
4.89
5.07
5.325
5.62
5.85
5.955
5.875
5.6
5.195
4.845
4.65
4.575
4.575
4.615
4.65
4.665
4.68
4.68
4.675
4.675
4.67
4.675
4.67
4.68
4.67
4.66
4.655
4.675
4.675
4.67
4.665
4.655
4.65
4.66
4.67
4.665
4.665
4.655
4.66
4.68
4.685
4.68
4.67
4.665
4.67
4.675
4.675
4.675
4.665
4.665
4.675
4.68
4.68
4.665
4.645
4.655
4.655
4.665
4.68
4.68
4.675
4.675
4.68
4.68
4.685
4.68
4.665
4.655
4.65
4.645
4.67
4.675
4.68
4.67
4.66
4.67
4.685
4.685
4.665
4.66
4.655
4.66
4.67
4.665
4.665
4.655
4.665
4.665
4.675
4.655
4.65
4.64
4.635
4.63
4.635
4.64
4.625
4.605
4.605
4.615
4.635
4.64
4.625
4.615
4.625
4.625
4.645
4.66
4.655
4.655
4.675
4.69
4.71
4.705
4.71
4.71
4.715
4.74
4.755
4.755
4.75
4.75
4.76
4.765
4.775
4.775
4.79
4.775
4.775
4.785
4.78
4.785
4.79
4.775
4.78
4.785
4.8
4.79
4.785
4.77
4.775
4.79
4.8
4.79
4.78
4.775
4.77
4.785
4.795
4.78
4.775
4.76
4.75
4.78
4.79
4.78
4.78
4.765
4.77
4.76
4.78
4.785
4.77
4.76
4.75
4.76
4.765
4.77
4.755
4.745
4.76
4.75
4.76
4.76
4.75
4.74
4.74
4.75
4.77
4.77
4.765
4.76
4.77
4.77
4.78
4.775
4.765
4.755
4.755
4.76
4.77
4.76
4.755
4.745
4.74
4.745
4.76
4.765
4.75
4.74
4.755
4.77
4.765
4.765
4.765
4.75
4.76
4.77
4.785
4.775
4.77
4.765
4.775
4.795
4.81
4.81
4.815
4.815
4.815
4.835
4.845
4.855
4.855
4.86
4.875
4.88
4.895
4.88
4.885
4.875
4.86
4.88
4.89
4.875
4.865
4.87
4.865
4.86
4.86
4.88
4.88
4.875
4.87
4.85
4.835
4.815
4.79
4.775
4.775
4.765
4.765
4.76
4.755
4.755
4.75
4.77
4.77
4.765
4.755
4.745
4.745
4.76
4.765
4.765
4.76
4.74
4.735
4.745
4.75
4.735
4.71
4.675
4.63
4.615
4.595
4.54
4.525
4.575
4.71
4.86
5.035
5.24
5.51
5.755
5.965
6.05
5.98
5.695
5.28
4.905
4.665
4.59
4.58
4.585
4.57
4.585
4.61
4.66
4.71
4.71
4.695
4.69
4.69
4.695
4.71
4.71
4.695
4.69
4.695
4.7
4.715
4.71
4.71
4.71
4.7
4.715
4.725
4.725
4.71
4.705
4.7
4.71
4.72
4.71
4.7
4.7
4.695
4.705
4.705
4.715
4.705
4.7
4.69
4.695
4.715
4.71
4.71
4.7
4.705
4.72
4.735
4.725
4.725
4.715
4.715
4.72
4.73
4.725
4.715
4.7
4.7
4.715
4.73
4.72
4.71
4.7
4.695
4.71
4.72
4.725
4.715
4.71
4.7
4.72
4.715
4.715
4.71
4.695
4.705
4.705
4.72
4.715
4.705
4.69
4.7
4.71
4.7
4.695
4.7
4.68
4.69
4.685
4.69
4.69
4.685
4.68
4.69
4.7
4.71
4.71
4.725
4.735
4.74
4.76
4.78
4.79
4.785
4.785
4.79
4.8
4.8
4.8
4.8
4.81
4.805
4.82
4.825
4.825
4.815
4.815
4.815
4.825
4.835
4.82
4.825
4.825
4.82
4.83
4.84
4.825
4.815
4.81
4.8
4.82
4.82
4.81
4.815
4.8
4.795
4.795
4.805
4.815
4.805
4.8
4.79
4.795
4.815
4.795
4.8
4.795
4.785
4.805
4.8
4.8
4.79
4.78
4.775
4.775
4.795
4.795
4.775
4.77
4.77
4.775
4.795
4.79
4.78
4.78
4.785
4.785
4.8
4.795
4.8
4.78
4.785
4.79
4.78
4.785
4.78
4.775
4.765
4.78
4.79
4.78
4.78
4.775
4.77
4.785
4.775
4.785
4.78
4.785
4.775
4.79
4.8
4.795
4.8
4.785
4.77
4.78
4.795
4.8
4.785
4.775
4.79
4.79
4.815
4.815
4.835
4.835
4.845
4.84
4.855
4.86
4.865
4.87
4.875
4.895
4.91
4.93
4.9
4.9
4.89
4.89
4.9
4.885
4.875
4.86
4.87
4.88
4.89
4.89
4.875
4.85
4.835
4.865
4.89
4.905
4.91
4.895
4.86
4.835
4.84
4.815
4.805
4.785
4.775
4.785
4.785
4.78
4.78
4.765
4.765
4.765
4.775
4.755
4.735
4.74
4.735
4.745
4.755
4.75
4.745
4.74
4.74
4.745
4.75
4.745
4.73
4.695
4.665
4.635
4.635
4.6
4.565
4.535
4.59
4.735
4.885
5.025
5.235
5.485
5.755
5.96
6.045
5.98
5.715
5.315
4.9
4.675
4.615
4.64
4.685
4.705
4.715
4.73
4.73
4.725
4.72
4.71
4.705
4.72
4.725
4.715
4.715
4.715
4.715
4.725
4.74
4.73
4.715
4.715
4.71
4.715
4.725
4.725
4.715
4.71
4.715
4.715
4.73
4.72
4.715
4.7
4.695
4.715
4.72
4.725
4.725
4.72
4.72
4.72
4.735
4.73
4.725
4.725
4.72
4.735
4.735
4.725
4.725
4.72
4.72
4.725
4.73
4.725
4.72
4.71
4.71
4.715
4.73
4.735
4.725
4.715
4.71
4.72
4.74
4.735
4.73
4.725
4.725
4.735
4.735
4.73
4.72
4.725
4.72
4.73
4.735
4.725
4.715
4.715
4.7
4.71
4.725
4.715
4.71
4.695
4.7
4.695
4.72
4.715
4.715
4.725
4.715
4.725
4.735
4.725
4.72
4.725
4.725
4.74
4.755
4.745
4.75
4.75
4.745
4.765
4.79
4.785
4.775
4.77
4.785
4.8
4.815
4.81
4.805
4.8
4.8
4.81
4.815
4.81
4.825
4.815
4.82
4.83
4.835
4.83
4.825
4.82
4.815
4.81
4.81
4.815
4.82
4.805
4.79
4.8
4.815
4.81
4.8
4.805
4.78
4.8
4.805
4.795
4.79
4.79
4.785
4.805
4.805
4.81
4.8
4.8
4.8
4.79
4.8
4.8
4.79
4.78
4.79
4.785
4.785
4.79
4.78
4.775
4.77
4.775
4.79
4.785
4.775
4.77
4.77
4.77
4.785
4.78
4.78
4.76
4.765
4.76
4.775
4.78
4.77
4.765
4.77
4.775
4.785
4.79
4.775
4.77
4.765
4.77
4.785
4.785
4.785
4.775
4.765
4.765
4.77
4.785
4.78
4.77
4.76
4.775
4.795
4.785
4.775
4.77
4.78
4.795
4.815
4.83
4.855
4.865
4.845
4.86
4.87
4.855
4.855
4.865
4.87
4.87
4.895
4.895
4.88
4.87
4.87
4.87
4.875
4.875
4.87
4.875
4.865
4.87
4.875
4.855
4.855
4.845
4.845
4.875
4.91
4.915
4.885
4.845
4.82
4.83
4.82
4.79
4.775
4.77
4.755
4.765
4.78
4.77
4.76
4.745
4.75
4.75
4.76
4.755
4.745
4.74
4.735
4.76
4.76
4.76
4.76
4.74
4.73
4.725
4.745
4.715
4.67
4.63
4.6
4.575
4.55
4.52
4.555
4.64
4.785
4.95
5.16
5.435
5.69
5.85
5.89
5.775
5.5
5.12
4.81
4.635
4.6
4.645
4.7
4.71
4.695
4.695
4.69
4.69
4.71
4.7
4.68
4.685
4.675
4.68
4.695
4.705
4.695
4.68
4.665
4.67
4.69
4.695
4.69
4.675
4.68
4.69
4.705
4.705
4.69
4.68
4.675
4.685
4.705
4.7
4.68
4.685
4.675
4.695
4.7
4.69
4.69
4.68
4.685
4.685
4.695
4.69
4.68
4.68
4.675
4.68
4.695
4.69
4.69
4.685
4.685
4.685
4.69
4.685
4.685
4.69
4.695
4.7
4.715
4.7
4.69
4.685
4.675
4.695
4.71
4.7
4.685
4.68
4.675
4.685
4.69
4.69
4.68
4.66
4.645
4.67
4.68
4.68
4.68
4.645
4.66
4.67
4.68
4.68
4.67
4.66
4.65
4.655
4.67
4.67
4.655
4.665
4.66
4.67
4.685
4.685
4.69
4.685
4.69
4.715
4.715
4.735
4.735
4.735
4.73
4.74
4.75
4.745
4.75
4.76
4.755
4.76
4.775
4.76
4.77
4.77
4.765
4.77
4.77
4.78
4.765
4.745
4.74
4.755
4.77
4.76
4.75
4.75
4.74
4.735
4.75
4.745
4.73
4.72
4.725
4.735
4.76
4.755
4.745
4.745
4.735
4.74
4.735
4.735
4.73
4.725
4.72
4.73
4.74
4.745
4.735
4.725
4.705
4.715
4.73
4.73
4.715
4.71
4.705
4.715
4.72
4.71
4.73
4.72
4.715
4.725
4.725
4.72
4.715
4.71
4.71
4.725
4.725
4.725
4.72
4.705
4.705
4.715
4.73
4.73
4.72
4.725
4.715
4.725
4.725
4.72
4.705
4.7
4.69
4.7
4.705
4.71
4.71
4.705
4.715
4.73
4.745
4.735
4.73
4.73
4.73
4.735
4.74
4.755
4.75
4.75
4.75
4.775
4.785
4.78
4.78
4.78
4.785
4.8
4.815
4.815
4.82
4.81
4.795
4.805
4.81
4.8
4.795
4.805
4.8
4.795
4.8
4.795
4.79
4.8
4.815
4.815
4.8
4.76
4.725
4.73
4.705
4.71
4.715
4.7
4.685
4.675
4.665
4.685
4.695
4.7
4.685
4.69
4.665
4.675
4.69
4.69
4.685
4.665
4.67
4.68
4.69
4.705
4.675
4.655
4.67
4.675
4.67
4.625
4.585
4.565
4.545
4.515
4.48
4.49
4.545
4.66
4.795
4.97
5.205
5.47
5.705
5.855
5.89
5.75
5.46
5.075
4.76
4.6
4.55
4.565
4.61
4.625
4.63
4.62
4.63
4.645
4.64
4.65
4.64
4.635
4.64
4.635
4.65
4.645
4.65
4.64
4.635
4.66
4.665
4.65
4.65
4.645
4.635
4.655
4.665
4.67
4.66
4.66
4.655
4.65
4.66
4.65
4.635
4.615
4.62
4.635
4.64
4.635
4.64
4.64
4.635
4.645
4.655
4.655
4.65
4.65
4.645
4.65
4.65
4.645
4.645
4.63
4.64
4.635
4.645
4.645
4.63
4.625
4.625
4.635
4.64
4.65
4.63
4.63
4.63
4.635
4.65
4.645
4.635
4.635
4.62
4.64
4.645
4.645
4.64
4.62
4.615
4.625
4.635
4.63
4.6
4.595
4.59
4.595
4.605
4.6
4.58
4.585
4.58
4.585
4.595
4.59
4.59
4.6
4.61
4.62
4.645
4.64
4.645
4.645
4.655
4.67
4.68
4.69
4.7
4.7
4.695
4.72
4.735
4.735
4.735
4.73
4.745
4.745
4.75
4.76
4.75
4.745
4.75
4.765
4.775
4.77
4.77
4.755
4.755
4.76
4.765
4.76
4.75
4.745
4.745
4.745
4.76
4.75
4.74
4.72
4.72
4.73
4.74
4.74
4.745
4.735
4.735
4.745
4.755
4.76
4.75
4.73
4.735
4.74
4.745
4.75
4.73
4.72
4.715
4.725
4.74
4.735
4.73
4.725
4.715
4.73
4.73
4.715
4.72
4.72
4.715
4.72
4.725
4.725
4.715
4.705
4.71
4.71
4.72
4.72
4.72
4.705
4.71
4.72
4.735
4.725
4.72
4.705
4.715
4.72
4.735
4.735
4.73
4.725
4.72
4.73
4.735
4.735
4.725
4.72
4.72
4.725
4.72
4.72
4.71
4.715
4.715
4.73
4.73
4.735
4.735
4.72
4.74
4.74
4.775
4.78
4.79
4.795
4.8
4.805
4.81
4.81
4.81
4.805
4.815
4.845
4.84
4.845
4.85
4.835
4.825
4.825
4.835
4.83
4.81
4.8
4.81
4.82
4.835
4.82
4.805
4.81
4.83
4.845
4.86
4.84
4.8
4.79
4.77
4.77
4.765
4.745
4.735
4.72
4.69
4.705
4.725
4.735
4.715
4.705
4.71
4.71
4.72
4.72
4.71
4.715
4.705
4.72
4.725
4.72
4.715
4.71
4.715
4.725
4.725
4.72
4.715
4.71
4.7
4.7
4.705
4.64
4.6
4.58
4.575
4.57
4.525
4.505
4.53
4.63
4.775
4.93
5.13
5.37
5.635
5.845
5.97
5.995
5.81
5.44
5.01
4.715
4.59
4.605
4.665
4.69
4.7
4.7
4.68
4.69
4.69
4.695
4.69
4.675
4.67
4.68
4.7
4.695
4.685
4.69
4.675
4.69
4.705
4.695
4.7
4.68
4.675
4.69
4.7
4.7
4.695
4.69
4.675
4.7
4.715
4.7
4.69
4.68
4.675
4.69
4.705
4.69
4.68
4.68
4.68
4.69
4.69
4.7
4.69
4.68
4.67
4.68
4.7
4.695
4.7
4.69
4.68
4.695
4.7
4.72
4.71
4.7
4.69
4.7
4.715
4.71
4.69
4.68
4.685
4.7
4.705
4.69
4.69
4.685
4.685
4.685
4.695
4.685
4.685
4.68
4.68
4.685
4.695
4.695
4.675
4.68
4.665
4.675
4.68
4.68
4.67
4.685
4.675
4.685
4.69
4.69
4.69
4.68
4.68
4.69
4.7
4.705
4.705
4.71
4.715
4.735
4.75
4.755
4.755
4.755
4.77
4.775
4.795
4.795
4.795
4.78
4.785
4.805
4.82
4.82
4.805
4.82
4.815
4.815
4.825
4.81
4.81
4.805
4.795
4.805
4.82
4.81
4.815
4.8
4.8
4.81
4.81
4.81
4.81
4.8
4.795
4.8
4.82
4.83
4.81
4.8
4.795
4.82
4.82
4.82
4.815
4.795
4.785
4.795
4.81
4.795
4.79
4.79
4.78
4.79
4.805
4.8
4.79
4.78
4.78
4.785
4.795
4.8
4.785
4.785
4.78
4.78
4.795
4.785
4.78
4.77
4.76
4.765
4.785
4.785
4.765
4.765
4.76
4.77
4.77
4.775
4.77
4.76
4.77
4.78
4.785
4.78
4.78
4.775
4.77
4.775
4.795
4.795
4.805
4.78
4.78
4.795
4.79
4.79
4.785
4.785
4.775
4.78
4.79
4.79
4.775
4.77
4.78
4.805
4.815
4.835
4.835
4.84
4.835
4.85
4.875
4.865
4.84
4.835
4.83
4.85
4.865
4.875
4.88
4.86
4.87
4.885
4.89
4.895
4.875
4.875
4.865
4.87
4.865
4.88
4.87
4.865
4.845
4.865
4.88
4.895
4.9
4.89
4.86
4.835
4.83
4.825
4.8
4.775
4.77
4.775
4.78
4.775
4.755
4.75
4.745
4.755
4.755
4.755
4.76
4.75
4.745
4.745
4.745
4.755
4.745
4.745
4.735
4.75
4.76
4.765
4.75
4.745
4.72
4.7
4.675
4.64
4.615
4.58
4.545
4.525
4.535
4.6
4.715
4.835
4.975
5.17
5.435
5.705
5.89
5.97
5.935
5.72
5.4
5.02
4.75
4.625
4.62
4.665
4.715
4.73
4.72
4.71
4.71
4.73
4.745
4.735
4.725
4.705
4.71
4.72
4.725
4.735
4.73
4.715
4.71
4.73
4.725
4.73
4.72
4.695
4.71
4.725
4.73
4.72
4.72
4.715
4.71
4.725
4.725
4.73
4.715
4.72
4.725
4.725
4.735
4.73
4.725
4.715
4.72
4.735
4.745
4.735
4.73
4.715
4.72
4.73
4.72
4.715
4.71
4.72
4.705
4.715
4.73
4.735
4.72
4.71
4.71
4.73
4.74
4.75
4.735
4.725
4.73
4.745
4.735
4.73
4.73
4.725
4.71
4.725
4.74
4.72
4.72
4.72
4.71
4.71
4.72
4.71
4.72
4.705
4.695
4.705
4.72
4.715
4.715
4.705
4.7
4.715
4.725
4.73
4.72
4.705
4.72
4.73
4.74
4.745
4.735
4.74
4.735
4.755
4.76
4.775
4.775
4.775
4.78
4.79
4.81
4.81
4.805
4.795
4.8
4.815
4.825
4.825
4.825
4.82
4.81
4.825
4.835
4.835
4.825
4.81
4.815
4.815
4.825
4.83
4.83
4.815
4.815
4.825
4.83
4.815
4.81
4.8
4.795
4.8
4.82
4.805
4.805
4.795
4.795
4.8
4.81
4.805
4.79
4.78
4.785
4.795
4.805
4.8
4.795
4.79
4.78
4.795
4.81
4.805
4.795
4.79
4.785
4.775
4.785
4.785
4.78
4.775
4.775
4.775
4.785
4.785
4.78
4.765
4.775
4.77
4.785
4.79
4.785
4.78
4.77
4.785
4.79
4.785
4.78
4.775
4.765
4.775
4.79
4.785
4.78
4.77
4.76
4.765
4.775
4.78
4.77
4.775
4.765
4.775
4.79
4.795
4.785
4.785
4.775
4.79
4.795
4.795
4.79
4.79
4.81
4.83
4.85
4.855
4.84
4.82
4.825
4.85
4.88
4.885
4.885
4.885
4.885
4.89
4.905
4.9
4.89
4.89
4.865
4.875
4.885
4.88
4.875
4.85
4.845
4.85
4.86
4.875
4.89
4.895
4.895
4.92
4.92
4.89
4.855
4.825
4.815
4.81
4.81
4.8
4.78
4.775
4.76
4.765
4.78
4.78
4.77
4.76
4.76
4.755
4.76
4.745
4.74
4.735
4.74
4.745
4.75
4.745
4.75
4.745
4.735
4.755
4.75
4.735
4.72
4.68
4.66
4.645
4.645
4.6
4.54
4.515
4.575
4.675
4.805
4.94
5.12
5.355
5.615
5.815
5.91
5.88
5.68
5.365
5.01
4.76
4.645
4.61
4.63
4.655
4.68
4.685
4.705
4.695
4.705
4.695
4.685
4.725
4.735
4.735
4.72
4.71
4.7
4.71
4.715
4.71
4.72
4.7
4.685
4.7
4.715
4.715
4.705
4.705
4.7
4.7
4.72
4.71
4.705
4.695
4.69
4.705
4.705
4.71
4.705
4.7
4.7
4.705
4.725
4.72
4.715
4.705
4.705
4.7
4.705
4.695
4.695
4.685
4.685
4.695
4.705
4.705
4.7
4.695
4.69
4.7
4.71
4.71
4.71
4.705
4.695
4.715
4.72
4.72
4.71
4.705
4.705
4.715
4.725
4.735
4.725
4.725
4.705
4.725
4.73
4.725
4.715
4.705
4.695
4.705
4.705
4.705
4.695
4.685
4.675
4.675
4.675
4.675
4.68
4.67
4.685
4.69
4.695
4.685
4.675
4.675
4.69
4.695
4.7
4.695
4.705
4.705
4.71
4.715
4.745
4.75
4.755
4.755
4.76
4.775
4.78
4.79
4.785
4.785
4.79
4.79
4.805
4.805
4.805
4.805
4.795
4.8
4.8
4.82
4.8
4.79
4.785
4.8
4.815
4.805
4.795
4.785
4.78
4.78
4.8
4.785
4.785
4.775
4.77
4.79
4.79
4.79
4.785
4.785
4.775
4.775
4.795
4.775
4.79
4.78
4.775
4.78
4.77
4.78
4.78
4.77
4.75
4.765
4.78
4.775
4.77
4.755
4.75
4.75
4.765
4.76
4.765
4.76
4.745
4.75
4.765
4.775
4.765
4.755
4.76
4.76
4.76
4.755
4.745
4.74
4.75
4.76
4.78
4.79
4.78
4.78
4.755
4.765
4.77
4.76
4.75
4.745
4.75
4.755
4.76
4.765
4.76
4.765
4.75
4.765
4.78
4.775
4.765
4.76
4.755
4.765
4.79
4.79
4.8
4.815
4.82
4.845
4.85
4.835
4.825
4.835
4.85
4.86
4.87
4.875
4.875
4.865
4.855
4.87
4.875
4.855
4.855
4.845
4.83
4.835
4.835
4.835
4.83
4.84
4.845
4.835
4.835
4.82
4.79
4.77
4.745
4.76
4.77
4.765
4.76
4.745
4.755
4.76
4.755
4.74
4.74
4.73
4.72
4.73
4.74
4.74
4.74
4.72
4.72
4.73
4.74
4.74
4.74
4.73
4.73
4.735
4.745
4.725
4.69
4.65
4.63
4.615
4.585
4.54
4.53
4.605
4.735
4.895
5.06
5.275
5.535
5.755
5.895
5.94
5.83
5.495
5.11
4.82
4.66
4.61
4.625
4.665
4.695
4.71
4.69
4.71
4.725
4.73
4.72
4.71
4.695
4.705
4.71
4.71
4.705
4.7
4.695
4.705
4.71
4.71
4.71
4.705
4.69
4.69
4.695
4.7
4.695
4.69
4.685
4.695
4.695
4.695
4.685
4.68
4.685
4.695
4.7
4.7
4.705
4.695
4.69
4.7
4.705
4.69
4.7
4.685
4.685
4.695
4.695
4.69
4.69
4.67
4.68
4.69
4.715
4.7
4.685
4.69
4.685
4.685
4.7
4.695
4.685
4.695
4.7
4.705
4.71
4.71
4.69
4.69
4.68
4.685
4.695
4.69
4.665
4.665
4.65
4.655
4.655
4.655
4.65
4.63
4.635
4.65
4.655
4.655
4.655
4.645
4.645
4.66
4.655
4.655
4.645
4.655
4.645
4.655
4.67
4.68
4.685
4.69
4.705
4.725
4.73
4.735
4.755
4.755
4.76
4.785
4.795
4.79
4.775
4.79
4.795
4.8
4.81
4.805
4.8
4.8
4.785
4.8
4.805
4.81
4.8
4.805
4.8
4.795
4.8
4.8
4.795
4.79
4.785
4.79
4.815
4.805
4.79
4.785
4.78
4.77
4.79
4.795
4.795
4.77
4.77
4.775
4.79
4.8
4.775
4.78
4.77
4.78
4.795
4.79
4.78
4.77
4.76
4.765
4.775
4.77
4.765
4.76
4.75
4.76
4.78
4.775
4.765
4.765
4.765
4.77
4.78
4.775
4.765
4.765
4.765
4.755
4.765
4.765
4.76
4.745
4.755
4.765
4.77
4.77
4.765
4.755
4.75
4.76
4.765
4.765
4.765
4.76
4.76
4.76
4.785
4.785
4.765
4.76
4.755
4.775
4.785
4.775
4.76
4.76
4.76
4.775
4.815
4.825
4.835
4.835
4.835
4.845
4.855
4.86
4.88
4.875
4.865
4.89
4.89
4.875
4.865
4.86
4.865
4.86
4.865
4.865
4.855
4.85
4.84
4.835
4.845
4.875
4.885
4.885
4.85
4.83
4.83
4.81
4.79
4.77
4.765
4.765
4.765
4.76
4.75
4.735
4.735
4.75
4.75
4.75
4.745
4.735
4.725
4.75
4.76
4.755
4.75
4.745
4.745
4.75
4.755
4.75
4.715
4.665
4.62
4.61
4.6
4.55
4.525
4.565
4.675
4.845
5.015
5.22
5.48
5.75
5.95
6.105
6.14
6.025
5.775
5.49
5.225
5.04
4.9
4.78
4.685
4.61
4.55
4.54
4.6
4.66
4.705
4.705
4.695
4.705
4.715
4.705
4.7
4.685
4.685
4.69
4.7
4.695
4.695
4.685
4.685
4.705
4.715
4.71
4.705
4.71
4.71
4.705
4.72
4.715
4.7
4.69
4.685
4.7
4.715
4.695
4.69
4.69
4.695
4.705
4.71
4.715
4.7
4.695
4.69
4.705
4.715
4.715
4.71
4.7
4.695
4.71
4.72
4.705
4.72
4.71
4.71
4.72
4.73
4.73
4.715
4.71
4.695
4.705
4.715
4.72
4.71
4.695
4.7
4.705
4.715
4.71
4.72
4.7
4.705
4.695
4.715
4.7
4.695
4.69
4.68
4.705
4.7
4.695
4.7
4.68
4.695
4.695
4.695
4.695
4.69
4.685
4.675
4.695
4.705
4.705
4.705
4.71
4.72
4.725
4.75
4.76
4.76
4.775
4.775
4.775
4.79
4.805
4.795
4.79
4.785
4.8
4.815
4.815
4.81
4.795
4.79
4.805
4.8
4.81
4.8
4.805
4.795
4.8
4.81
4.81
4.805
4.805
4.795
4.81
4.815
4.81
4.8
4.795
4.795
4.8
4.805
4.795
4.795
4.78
4.78
4.785
4.785
4.79
4.78
4.77
4.775
4.78
4.785
4.79
4.785
4.775
4.775
4.775
4.785
4.78
4.775
4.765
4.77
4.77
4.78
4.775
4.76
4.755
4.75
4.765
4.765
4.76
4.755
4.75
4.745
4.765
4.77
4.76
4.755
4.755
4.755
4.77
4.775
4.77
4.775
4.755
4.76
4.76
4.765
4.755
4.76
4.76
4.755
4.755
4.77
4.775
4.765
4.765
4.76
4.77
4.785
4.78
4.785
4.785
4.785
4.81
4.83
4.85
4.84
4.825
4.825
4.835
4.85
4.86
4.865
4.865
4.86
4.87
4.865
4.875
4.88
4.87
4.86
4.86
4.865
4.86
4.855
4.85
4.845
4.855
4.86
4.87
4.88
4.89
4.855
4.835
4.825
4.785
4.79
4.77
4.75
4.76
4.765
4.76
4.755
4.745
4.74
4.76
4.76
4.755
4.755
4.745
4.74
4.75
4.74
4.745
4.745
4.73
4.735
4.745
4.74
4.735
4.705
4.65
4.615
4.6
4.585
4.545
4.525
4.59
4.705
4.87
5.055
5.285
5.56
5.79
5.96
6.055
6.11
6.03
5.81
5.5
5.12
4.815
4.645
4.605
4.615
4.65
4.675
4.705
4.705
4.7
4.7
4.695
4.685
4.705
4.71
4.71
4.705
4.705
4.7
4.71
4.71
4.72
4.71
4.695
4.685
4.7
4.705
4.715
4.71
4.69
4.695
4.695
4.72
4.705
4.71
4.705
4.695
4.705
4.715
4.715
4.71
4.71
4.71
4.71
4.73
4.735
4.73
4.715
4.71
4.725
4.73
4.725
4.715
4.72
4.715
4.71
4.725
4.73
4.725
4.72
4.715
4.72
4.73
4.73
4.715
4.715
4.705
4.72
4.73
4.725
4.72
4.705
4.71
4.73
4.735
4.72
4.72
4.7
4.715
4.72
4.72
4.725
4.72
4.7
4.685
4.705
4.725
4.72
4.7
4.695
4.7
4.705
4.72
4.715
4.705
4.7
4.7
4.715
4.715
4.725
4.725
4.725
4.725
4.735
4.745
4.75
4.765
4.75
4.76
4.775
4.785
4.8
4.785
4.785
4.78
4.795
4.8
4.805
4.795
4.785
4.785
4.805
4.795
4.8
4.79
4.79
4.785
4.79
4.8
4.79
4.8
4.795
4.795
4.79
4.8
4.8
4.795
4.785
4.78
4.79
4.8
4.79
4.765
4.76
4.76
4.765
4.77
4.765
4.77
4.755
4.76
4.75
4.765
4.755
4.755
4.755
4.735
4.745
4.75
4.76
4.755
4.745
4.73
4.735
4.74
4.745
4.735
4.725
4.73
4.725
4.745
4.73
4.735
4.72
4.73
4.74
4.755
4.755
4.745
4.745
4.735
4.735
4.755
4.755
4.745
4.72
4.73
4.74
4.75
4.745
4.735
4.725
4.73
4.73
4.735
4.73
4.735
4.735
4.73
4.73
4.755
4.765
4.755
4.75
4.745
4.745
4.755
4.75
4.765
4.775
4.79
4.8
4.82
4.82
4.8
4.795
4.81
4.815
4.83
4.845
4.845
4.83
4.835
4.845
4.84
4.835
4.82
4.82
4.825
4.845
4.845
4.83
4.82
4.825
4.83
4.855
4.84
4.81
4.785
4.765
4.74
4.725
4.74
4.72
4.71
4.705
4.705
4.715
4.735
4.72
4.715
4.695
4.71
4.725
4.745
4.735
4.725
4.72
4.72
4.73
4.73
4.73
4.72
4.71
4.71
4.71
4.695
4.695
4.7
4.68
4.675
4.665
4.64
4.615
4.59
4.555
4.5
4.49
4.535
4.63
4.75
4.87
5.04
5.3
5.575
5.77
5.885
5.855
5.66
5.315
4.985
4.735
4.595
4.555
4.59
4.63
4.655
4.665
4.66
4.65
4.655
4.66
4.675
4.685
4.68
4.68
4.67
4.665
4.675
4.665
4.66
4.665
4.66
4.675
4.685
4.68
4.67
4.665
4.67
4.66
4.675
4.67
4.67
4.665
4.65
4.66
4.665
4.675
4.66
4.665
4.665
4.665
4.66
4.655
4.655
4.645
4.655
4.67
4.675
4.675
4.665
4.66
4.665
4.665
4.68
4.68
4.67
4.665
4.66
4.675
4.685
4.675
4.665
4.655
4.635
4.645
4.665
4.675
4.675
4.67
4.665
4.67
4.685
4.675
4.67
4.67
4.66
4.67
4.68
4.675
4.66
4.645
4.645
4.655
4.66
4.65
4.64
4.62
4.62
4.635
4.635
4.635
4.63
4.625
4.615
4.63
4.62
4.615
4.615
4.61
4.605
4.615
4.62
4.625
4.615
4.62
4.62
4.64
4.665
4.695
4.695
4.705
4.715
4.725
4.74
4.735
4.74
4.735
4.725
4.735
4.75
4.765
4.765
4.75
4.75
4.765
4.775
4.78
4.775
4.78
4.775
4.78
4.785
4.77
4.77
4.77
4.765
4.78
4.785
4.775
4.785
4.785
4.785
4.795
4.805
4.8
4.78
4.77
4.77
4.77
4.785
4.77
4.755
4.755
4.75
4.75
4.765
4.765
4.76
4.75
4.75
4.75
4.765
4.765
4.765
4.74
4.75
4.755
4.77
4.77
4.755
4.76
4.745
4.755
4.76
4.76
4.74
4.73
4.735
4.74
4.745
4.745
4.735
4.725
4.715
4.735
4.755
4.74
4.735
4.745
4.745
4.75
4.76
4.76
4.75
4.74
4.74
4.75
4.765
4.755
4.75
4.74
4.74
4.745
4.755
4.75
4.735
4.72
4.73
4.735
4.755
4.755
4.735
4.74
4.735
4.735
4.755
4.76
4.765
4.77
4.77
4.8
4.81
4.82
4.815
4.815
4.815
4.83
4.845
4.835
4.845
4.85
4.85
4.855
4.865
4.855
4.835
4.835
4.82
4.825
4.84
4.845
4.83
4.815
4.81
4.84
4.875
4.87
4.845
4.82
4.795
4.785
4.775
4.76
4.76
4.75
4.735
4.73
4.735
4.735
4.735
4.73
4.72
4.715
4.725
4.735
4.725
4.72
4.71
4.71
4.73
4.725
4.725
4.72
4.72
4.73
4.75
4.75
4.74
4.74
4.725
4.735
4.74
4.72
4.695
4.66
4.625
4.605
4.6
4.56
4.525
4.555
4.655
4.81
4.955
5.15
5.415
5.67
5.875
5.98
5.935
5.695
5.325
4.94
4.68
4.595
4.6
4.645
4.68
4.69
4.68
4.69
4.705
4.715
4.7
4.695
4.685
4.695
4.705
4.705
4.7
4.7
4.695
4.705
4.72
4.71
4.72
4.7
4.705
4.705
4.72
4.71
4.71
4.695
4.685
4.7
4.71
4.715
4.7
4.685
4.695
4.705
4.7
4.705
4.71
4.69
4.69
4.7
4.715
4.72
4.71
4.705
4.705
4.715
4.72
4.72
4.71
4.715
4.705
4.72
4.72
4.705
4.7
4.715
4.7
4.705
4.71
4.71
4.7
4.695
4.705
4.705
4.71
4.715
4.71
4.69
4.695
4.71
4.715
4.715
4.71
4.7
4.695
4.695
4.705
4.695
4.69
4.685
4.675
4.68
4.67
4.67
4.66
4.655
4.655
4.66
4.665
4.665
4.67
4.66
4.66
4.675
4.69
4.69
4.675
4.685
4.695
4.72
4.735
4.745
4.745
4.74
4.75
4.77
4.79
4.795
4.795
4.8
4.805
4.805
4.825
4.82
4.825
4.81
4.82
4.83
4.84
4.835
4.835
4.83
4.82
4.835
4.84
4.835
4.84
4.825
4.815
4.83
4.845
4.83
4.825
4.82
4.805
4.815
4.83
4.82
4.815
4.81
4.81
4.81
4.82
4.825
4.815
4.8
4.805
4.81
4.82
4.83
4.82
4.8
4.8
4.82
4.825
4.825
4.81
4.8
4.805
4.815
4.81
4.8
4.795
4.81
4.795
4.81
4.81
4.81
4.795
4.79
4.79
4.8
4.82
4.81
4.82
4.805
4.795
4.81
4.825
4.82
4.81
4.8
4.79
4.805
4.82
4.81
4.795
4.79
4.78
4.795
4.8
4.8
4.79
4.785
4.79
4.785
4.805
4.805
4.8
4.8
4.79
4.795
4.795
4.795
4.8
4.785
4.79
4.81
4.825
4.825
4.81
4.81
4.81
4.83
4.835
4.85
4.86
4.87
4.86
4.855
4.87
4.875
4.87
4.875
4.875
4.895
4.925
4.92
4.915
4.9
4.895
4.9
4.905
4.885
4.9
4.89
4.885
4.89
4.89
4.895
4.9
4.925
4.94
4.935
4.91
4.88
4.865
4.855
4.835
4.82
4.82
4.82
4.805
4.785
4.78
4.78
4.805
4.795
4.79
4.78
4.77
4.79
4.8
4.785
4.79
4.78
4.775
4.785
4.78
4.79
4.78
4.77
4.77
4.765
4.77
4.765
4.725
4.69
4.645
4.635
4.625
4.57
4.55
4.575
4.68
4.82
4.985
5.16
5.405
5.685
5.925
6.065
6.07
5.86
5.46
5.045
4.75
4.64
4.655
4.715
4.75
4.755
4.74
4.745
4.76
4.765
4.75
4.745
4.745
4.755
4.76
4.76
4.745
4.73
4.73
4.735
4.745
4.74
4.75
4.735
4.74
4.74
4.75
4.75
4.735
4.725
4.72
4.735
4.755
4.745
4.735
4.735
4.73
4.735
4.745
4.74
4.74
4.73
4.735
4.74
4.745
4.73
4.73
4.74
4.74
4.755
4.77
4.755
4.755
4.755
4.745
4.755
4.75
4.745
4.745
4.74
4.735
4.74
4.755
4.76
4.76
4.75
4.745
4.755
4.765
4.765
4.755
4.755
4.755
4.75
4.765
4.755
4.76
4.755
4.75
4.76
4.775
4.78
4.76
4.755
4.745
4.755
4.76
4.755
4.75
4.73
4.73
4.735
4.755
4.755
4.75
4.74
4.74
4.745
4.76
4.765
4.765
4.75
4.745
4.765
4.785
4.79
4.8
4.795
4.8
4.815
4.825
4.83
4.83
4.82
4.825
4.84
4.845
4.85
4.855
4.845
4.84
4.85
4.86
4.85
4.855
4.84
4.83
4.84
4.855
4.855
4.855
4.85
4.835
4.855
4.865
4.865
4.85
4.85
4.84
4.855
4.86
4.855
4.845
4.835
4.83
4.84
4.84
4.835
4.83
4.825
4.82
4.825
4.835
4.835
4.825
4.82
4.815
4.815
4.82
4.83
4.83
4.805
4.81
4.83
4.84
4.84
4.83
4.815
4.825
4.825
4.83
4.815
4.815
4.8
4.81
4.805
4.82
4.81
4.81
4.795
4.8
4.8
4.815
4.805
4.81
4.795
4.785
4.815
4.81
4.82
4.81
4.81
4.81
4.81
4.825
4.835
4.825
4.815
4.81
4.81
4.82
4.835
4.825
4.815
4.815
4.82
4.825
4.825
4.815
4.81
4.8
4.805
4.82
4.825
4.82
4.825
4.82
4.84
4.86
4.87
4.88
4.875
4.88
4.89
4.9
4.91
4.925
4.915
4.925
4.935
4.94
4.945
4.935
4.915
4.905
4.915
4.915
4.92
4.915
4.895
4.89
4.895
4.925
4.95
4.945
4.905
4.875
4.87
4.88
4.86
4.84
4.815
4.805
4.805
4.81
4.815
4.81
4.8
4.785
4.8
4.815
4.81
4.81
4.79
4.78
4.79
4.81
4.795
4.785
4.78
4.775
4.785
4.795
4.795
4.78
4.78
4.775
4.755
4.735
4.7
4.675
4.65
4.61
4.585
4.625
4.725
4.845
4.97
5.15
5.4
5.66
5.87
6.01
6.09
6.14
6.115
5.99
5.785
5.505
5.21
4.94
4.75
4.655
4.645
4.665
4.68
4.725
4.75
4.76
4.77
4.765
4.765
4.76
4.765
4.765
4.77
4.77
4.755
4.755
4.76
4.765
4.765
4.75
4.745
4.74
4.75
4.75
4.76
4.755
4.735
4.73
4.755
4.76
4.76
4.765
4.755
4.745
4.755
4.76
4.76
4.76
4.75
4.75
4.76
4.77
4.765
4.76
4.755
4.74
4.76
4.77
4.76
4.77
4.74
4.735
4.75
4.765
4.765
4.765
4.745
4.75
4.775
4.775
4.77
4.765
4.755
4.765
4.78
4.79
4.78
4.765
4.755
4.76
4.785
4.78
4.77
4.755
4.75
4.75
4.75
4.755
4.76
4.765
4.745
4.74
4.75
4.76
4.755
4.74
4.735
4.735
4.73
4.74
4.735
4.73
4.715
4.725
4.74
4.76
4.77
4.76
4.76
4.76
4.78
4.795
4.8
4.81
4.8
4.785
4.805
4.815
4.805
4.815
4.805
4.81
4.84
4.83
4.835
4.825
4.82
4.835
4.835
4.83
4.83
4.825
4.82
4.805
4.82
4.83
4.84
4.825
4.815
4.82
4.82
4.83
4.82
4.81
4.805
4.8
4.81
4.8
4.805
4.795
4.79
4.785
4.79
4.795
4.81
4.8
4.79
4.78
4.775
4.785
4.79
4.785
4.775
4.785
4.79
4.795
4.795
4.785
4.785
4.785
4.78
4.79
4.785
4.775
4.77
4.76
4.765
4.775
4.785
4.78
4.765
4.765
4.775
4.785
4.78
4.77
4.765
4.765
4.765
4.775
4.775
4.77
4.765
4.765
4.775
4.77
4.785
4.785
4.765
4.765
4.77
4.77
4.78
4.765
4.745
4.755
4.765
4.775
4.76
4.77
4.765
4.775
4.785
4.805
4.825
4.825
4.815
4.815
4.83
4.84
4.855
4.855
4.855
4.855
4.88
4.89
4.885
4.87
4.87
4.865
4.865
4.86
4.855
4.85
4.85
4.855
4.86
4.845
4.85
4.86
4.87
4.86
4.845
4.83
4.825
4.8
4.78
4.75
4.76
4.75
4.735
4.73
4.72
4.735
4.735
4.74
4.75
4.74
4.735
4.74
4.745
4.745
4.74
4.725
4.72
4.725
4.74
4.75
4.75
4.745
4.725
4.72
4.735
4.735
4.735
4.72
4.69
4.675
4.655
4.645
4.61
4.545
4.515
4.555
4.67
4.815
4.98
5.18
5.42
5.67
5.86
5.93
5.835
5.54
5.155
4.82
4.655
4.6
4.63
4.67
4.695
4.675
4.685
4.685
4.68
4.69
4.695
4.69
4.71
4.705
4.705
4.7
4.675
4.665
4.685
4.695
4.7
4.69
4.685
4.685
4.685
4.695
4.69
4.69
4.675
4.67
4.675
4.69
4.685
4.69
4.685
4.69
4.695
4.7
4.705
4.705
4.68
4.675
4.685
4.695
4.69
4.68
4.655
4.66
4.67
4.675
4.67
4.665
4.675
4.67
4.68
4.69
4.705
4.695
4.695
4.675
4.69
4.69
4.675
4.675
4.665
4.675
4.67
4.68
4.685
4.68
4.67
4.66
4.67
4.68
4.68
4.67
4.665
4.65
4.65
4.645
4.635
4.645
4.645
4.635
4.64
4.645
4.635
4.63
4.615
4.61
4.605
4.615
4.64
4.625
4.635
4.635
4.66
4.68
4.685
4.7
4.705
4.7
4.72
4.74
4.76
4.76
4.75
4.75
4.765
4.78
4.79
4.795
4.785
4.77
4.775
4.785
4.785
4.785
4.765
4.77
4.77
4.78
4.785
4.78
4.77
4.765
4.775
4.79
4.785
4.78
4.77
4.77
4.775
4.78
4.77
4.765
4.76
4.745
4.75
4.76
4.765
4.75
4.75
4.74
4.74
4.755
4.745
4.74
4.73
4.73
4.73
4.75
4.75
4.745
4.725
4.74
4.745
4.765
4.76
4.75
4.74
4.735
4.74
4.745
4.74
4.74
4.725
4.73
4.735
4.745
4.74
4.74
4.735
4.725
4.73
4.725
4.75
4.74
4.745
4.74
4.75
4.76
4.745
4.735
4.735
4.73
4.73
4.745
4.745
4.745
4.735
4.725
4.72
4.74
4.745
4.745
4.73
4.735
4.755
4.785
4.785
4.805
4.795
4.8
4.815
4.815
4.825
4.83
4.83
4.83
4.835
4.845
4.835
4.825
4.805
4.815
4.82
4.835
4.835
4.83
4.815
4.81
4.815
4.815
4.84
4.835
4.83
4.805
4.785
4.775
4.775
4.745
4.745
4.74
4.735
4.73
4.735
4.73
4.73
4.72
4.7
4.715
4.715
4.715
4.705
4.7
4.7
4.7
4.72
4.705
4.7
4.695
4.705
4.715
4.715
4.71
4.695
4.67
4.64
4.61
4.595
4.57
4.51
4.475
4.49
4.555
4.635
4.725
4.81
4.89
5.025
5.19
5.42
5.665
5.845
5.935
5.93
5.75
5.39
4.98
4.715
4.605
4.585
4.635
4.685
4.69
4.69
4.685
4.7
4.695
4.705
4.7
4.68
4.675
4.69
4.685
4.695
4.69
4.68
4.675
4.69
4.69
4.68
4.68
4.675
4.665
4.685
4.685
4.695
4.695
4.685
4.67
4.69
4.7
4.7
4.695
4.675
4.68
4.685
4.695
4.69
4.685
4.685
4.69
4.71
4.7
4.705
4.7
4.68
4.69
4.7
4.7
4.705
4.69
4.68
4.685
4.695
4.695
4.695
4.71
4.695
4.69
4.695
4.715
4.705
4.705
4.7
4.69
4.7
4.7
4.695
4.69
4.685
4.675
4.675
4.68
4.68
4.67
4.66
4.655
4.665
4.67
4.675
4.655
4.655
4.65
4.64
4.66
4.67
4.66
4.65
4.645
4.665
4.68
4.675
4.685
4.67
4.675
4.715
4.725
4.735
4.74
4.745
4.745
4.76
4.775
4.78
4.795
4.79
4.79
4.795
4.81
4.81
4.815
4.8
4.8
4.805
4.82
4.81
4.8
4.79
4.79
4.8
4.8
4.805
4.8
4.795
4.79
4.79
4.795
4.795
4.79
4.77
4.78
4.785
4.785
4.79
4.79
4.785
4.775
4.785
4.8
4.8
4.785
4.785
4.765
4.78
4.785
4.775
4.77
4.76
4.76
4.755
4.765
4.78
4.765
4.745
4.755
4.755
4.765
4.76
4.77
4.76
4.745
4.755
4.76
4.755
4.76
4.755
4.765
4.765
4.775
4.78
4.77
4.76
4.755
4.765
4.775
4.755
4.76
4.75
4.755
4.745
4.76
4.75
4.755
4.745
4.74
4.75
4.755
4.755
4.76
4.75
4.75
4.75
4.75
4.76
4.76
4.75
4.755
4.77
4.775
4.78
4.785
4.78
4.805
4.82
4.835
4.835
4.83
4.82
4.82
4.835
4.845
4.86
4.86
4.855
4.85
4.855
4.865
4.86
4.855
4.84
4.825
4.845
4.84
4.85
4.83
4.835
4.845
4.87
4.895
4.865
4.835
4.815
4.8
4.78
4.78
4.755
4.745
4.72
4.72
4.73
4.73
4.74
4.735
4.725
4.72
4.715
4.725
4.73
4.735
4.715
4.71
4.72
4.72
4.725
4.725
4.715
4.72
4.725
4.73
4.715
4.7
4.685
4.665
4.635
4.62
4.615
4.6
4.585
4.565
4.535
4.54
4.59
4.705
4.835
5
5.2
5.44
5.695
5.875
5.925
5.84
5.59
5.24
4.91
4.695
4.635
4.645
4.685
4.71
4.715
4.685
4.695
4.69
4.7
4.705
4.695
4.685
4.675
4.675
4.675
4.68
4.695
4.69
4.68
4.685
4.685
4.68
4.68
4.68
4.67
4.66
4.68
4.695
4.695
4.695
4.69
4.68
4.685
4.695
4.7
4.68
4.685
4.68
4.675
4.685
4.685
4.68
4.67
4.665
4.68
4.685
4.69
4.685
4.685
4.68
4.68
4.68
4.675
4.685
4.685
4.675
4.68
4.69
4.695
4.69
4.68
4.675
4.685
4.69
4.7
4.69
4.685
4.665
4.68
4.68
4.68
4.68
4.675
4.675
4.685
4.685
4.695
4.695
4.68
4.68
4.67
4.685
4.68
4.665
4.665
4.655
4.67
4.67
4.675
4.665
4.665
4.665
4.665
4.685
4.685
4.685
4.69
4.695
4.71
4.735
4.745
4.74
4.74
4.74
4.765
4.765
4.765
4.765
4.755
4.78
4.79
4.79
4.785
4.77
4.775
4.78
4.78
4.79
4.79
4.785
4.775
4.77
4.775
4.78
4.78
4.785
4.765
4.765
4.775
4.78
4.77
4.765
4.765
4.765
4.76
4.765
4.76
4.755
4.75
4.745
4.755
4.755
4.755
4.75
4.735
4.73
4.73
4.75
4.75
4.745
4.735
4.725
4.725
4.755
4.75
4.73
4.73
4.725
4.735
4.73
4.73
4.74
4.73
4.715
4.73
4.725
4.72
4.72
4.705
4.71
4.715
4.73
4.735
4.725
4.71
4.715
4.74
4.745
4.735
4.745
4.74
4.735
4.75
4.75
4.75
4.75
4.74
4.74
4.735
4.745
4.74
4.74
4.735
4.73
4.755
4.755
4.765
4.745
4.76
4.765
4.785
4.805
4.815
4.82
4.81
4.805
4.83
4.85
4.85
4.85
4.83
4.835
4.845
4.855
4.85
4.835
4.82
4.81
4.825
4.835
4.835
4.825
4.81
4.805
4.835
4.86
4.855
4.82
4.775
4.77
4.77
4.775
4.75
4.725
4.73
4.72
4.73
4.725
4.72
4.72
4.705
4.69
4.695
4.715
4.7
4.69
4.695
4.7
4.71
4.715
4.72
4.715
4.695
4.695
4.705
4.705
4.7
4.69
4.645
4.615
4.585
4.585
4.535
4.48
4.47
4.535
4.64
4.73
4.78
4.855
4.945
5.08
5.27
5.495
5.68
5.825
5.89
5.845
5.61
5.26
4.89
4.64
4.555
4.58
4.64
4.67
4.68
4.67
4.67
4.67
4.675
4.69
4.69
4.67
4.66
4.655
4.66
4.665
4.67
4.67
4.665
4.66
4.67
4.675
4.67
4.665
4.655
4.65
4.665
4.675
4.665
4.665
4.665
4.665
4.685
4.685
4.695
4.675
4.68
4.67
4.67
4.665
4.67
4.665
4.655
4.66
4.66
4.675
4.675
4.66
4.65
4.655
4.665
4.685
4.68
4.67
4.665
4.655
4.655
4.655
4.67
4.675
4.675
4.675
4.675
4.69
4.69
4.685
4.66
4.67
4.68
4.695
4.68
4.665
4.66
4.645
4.65
4.665
4.665
4.65
4.635
4.635
4.65
4.65
4.65
4.64
4.63
4.63
4.645
4.66
4.655
4.645
4.635
4.635
4.645
4.64
4.65
4.645
4.64
4.64
4.675
4.68
4.705
4.705
4.71
4.71
4.73
4.74
4.74
4.735
4.73
4.74
4.755
4.76
4.765
4.755
4.755
4.755
4.77
4.77
4.775
4.765
4.745
4.735
4.745
4.765
4.765
4.77
4.765
4.75
4.765
4.765
4.765
4.745
4.74
4.74
4.75
4.76
4.76
4.75
4.725
4.725
4.74
4.755
4.765
4.745
4.74
4.745
4.75
4.75
4.75
4.725
4.715
4.715
4.725
4.72
4.72
4.71
4.715
4.71
4.71
4.72
4.72
4.71
4.7
4.705
4.71
4.725
4.73
4.725
4.715
4.715
4.73
4.73
4.725
4.715
4.715
4.705
4.705
4.7
4.715
4.715
4.715
4.69
4.71
4.71
4.715
4.71
4.7
4.7
4.705
4.72
4.715
4.715
4.7
4.715
4.705
4.72
4.73
4.725
4.725
4.725
4.73
4.74
4.755
4.775
4.77
4.775
4.785
4.78
4.78
4.775
4.775
4.785
4.805
4.83
4.845
4.845
4.835
4.82
4.825
4.82
4.81
4.815
4.815
4.81
4.81
4.8
4.825
4.825
4.825
4.81
4.79
4.785
4.78
4.755
4.745
4.72
4.715
4.72
4.705
4.705
4.695
4.695
4.69
4.715
4.72
4.72
4.7
4.695
4.69
4.705
4.705
4.69
4.685
4.69
4.695
4.7
4.695
4.695
4.69
4.695
4.695
4.695
4.69
4.675
4.645
4.595
4.58
4.585
4.55
4.515
4.5
4.565
4.7
4.835
4.99
5.215
5.475
5.72
5.895
5.95
5.805
5.48
5.09
4.775
4.625
4.585
4.59
4.63
4.645
4.64
4.655
4.65
4.655
4.665
4.655
4.64
4.64
4.67
4.665
4.66
4.65
4.645
4.66
4.67
4.675
4.655
4.65
4.655
4.675
4.675
4.675
4.67
4.665
4.655
4.67
4.67
4.675
4.665
4.655
4.655
4.655
4.675
4.675
4.67
4.655
4.65
4.655
4.665
4.665
4.66
4.665
4.66
4.66
4.675
4.675
4.675
4.67
4.66
4.68
4.685
4.69
4.68
4.67
4.67
4.68
4.685
4.69
4.68
4.665
4.66
4.685
4.68
4.685
4.68
4.675
4.665
4.66
4.68
4.675
4.665
4.66
4.66
4.67
4.665
4.67
4.66
4.655
4.645
4.655
4.65
4.655
4.645
4.62
4.605
4.625
4.63
4.625
4.615
4.615
4.61
4.625
4.63
4.635
4.635
4.625
4.63
4.64
4.66
4.67
4.67
4.675
4.685
4.7
4.705
4.72
4.72
4.73
4.74
4.75
4.76
4.775
4.77
4.775
4.775
4.78
4.795
4.8
4.785
4.79
4.79
4.795
4.81
4.815
4.81
4.79
4.8
4.805
4.815
4.805
4.81
4.785
4.785
4.795
4.795
4.795
4.785
4.765
4.775
4.795
4.795
4.79
4.79
4.78
4.77
4.79
4.795
4.785
4.785
4.79
4.775
4.78
4.79
4.795
4.78
4.78
4.775
4.79
4.8
4.79
4.8
4.79
4.785
4.765
4.785
4.785
4.78
4.77
4.765
4.77
4.775
4.785
4.77
4.77
4.765
4.76
4.77
4.78
4.765
4.755
4.75
4.76
4.78
4.785
4.775
4.775
4.765
4.77
4.785
4.785
4.79
4.78
4.78
4.79
4.8
4.795
4.785
4.77
4.775
4.775
4.78
4.77
4.785
4.78
4.765
4.78
4.79
4.79
4.775
4.775
4.775
4.79
4.815
4.825
4.835
4.845
4.85
4.855
4.875
4.875
4.87
4.86
4.86
4.865
4.885
4.89
4.885
4.89
4.89
4.895
4.905
4.905
4.885
4.87
4.865
4.865
4.885
4.88
4.88
4.865
4.855
4.88
4.915
4.94
4.91
4.88
4.855
4.845
4.835
4.82
4.795
4.78
4.78
4.77
4.78
4.775
4.775
4.77
4.77
4.78
4.79
4.79
4.79
4.775
4.77
4.785
4.785
4.805
4.785
4.78
4.775
4.78
4.79
4.795
4.78
4.785
4.775
4.78
4.79
4.785
4.765
4.735
4.695
4.66
4.655
4.63
4.595
4.55
4.55
4.635
4.74
4.895
5.055
5.23
5.48
5.76
5.96
6.08
6.09
5.91
5.56
5.145
4.835
4.695
4.66
4.685
4.725
4.755
4.765
4.75
4.75
4.75
4.745
4.74
4.745
4.755
4.745
4.73
4.735
4.74
4.74
4.76
4.75
4.74
4.73
4.75
4.76
4.76
4.745
4.735
4.73
4.735
4.745
4.755
4.74
4.73
4.74
4.745
4.755
4.755
4.745
4.74
4.735
4.75
4.755
4.765
4.76
4.745
4.73
4.745
4.76
4.765
4.745
4.74
4.75
4.76
4.76
4.76
4.755
4.745
4.75
4.755
4.76
4.755
4.755
4.745
4.75
4.745
4.755
4.755
4.755
4.75
4.73
4.745
4.755
4.75
4.75
4.745
4.75
4.755
4.755
4.76
4.76
4.74
4.745
4.765
4.77
4.77
4.755
4.745
4.745
4.75
4.755
4.75
4.735
4.73
4.72
4.73
4.74
4.745
4.74
4.74
4.73
4.745
4.76
4.755
4.75
4.77
4.765
4.785
4.8
4.81
4.805
4.815
4.82
4.83
4.835
4.855
4.855
4.835
4.85
4.865
4.88
4.89
4.875
4.875
4.865
4.875
4.89
4.88
4.875
4.88
4.86
4.88
4.88
4.875
4.87
4.875
4.865
4.875
4.875
4.885
4.87
4.865
4.855
4.865
4.875
4.875
4.87
4.86
4.86
4.87
4.87
4.875
4.85
4.855
4.845
4.845
4.855
4.85
4.84
4.845
4.84
4.835
4.855
4.85
4.845
4.835
4.835
4.845
4.845
4.85
4.845
4.83
4.825
4.84
4.85
4.845
4.835
4.82
4.815
4.83
4.83
4.83
4.825
4.83
4.815
4.815
4.83
4.83
4.82
4.8
4.815
4.825
4.84
4.835
4.82
4.83
4.83
4.825
4.84
4.85
4.845
4.83
4.82
4.83
4.84
4.845
4.835
4.82
4.82
4.83
4.835
4.845
4.835
4.83
4.825
4.84
4.84
4.85
4.85
4.87
4.875
4.895
4.905
4.915
4.915
4.905
4.91
4.925
4.94
4.945
4.94
4.935
4.93
4.94
4.955
4.96
4.94
4.94
4.92
4.925
4.935
4.93
4.93
4.935
4.92
4.925
4.925
4.91
4.92
4.93
4.94
4.965
4.94
4.91
4.885
4.875
4.865
4.86
4.85
4.85
4.83
4.815
4.81
4.82
4.845
4.83
4.83
4.825
4.82
4.805
4.815
4.82
4.81
4.82
4.81
4.82
4.815
4.83
4.82
4.815
4.805
4.82
4.815
4.795
4.76
4.705
4.67
4.665
4.63
4.59
4.615
4.69
4.815
4.94
5.06
5.2
5.405
5.605
5.81
5.985
6.075
6.115
6
5.705
5.255
4.91
4.72
4.695
4.715
4.76
4.785
4.785
4.78
4.785
4.78
4.77
4.765
4.77
4.77
4.77
4.765
4.75
4.75
4.765
4.77
4.765
4.78
4.77
4.755
4.765
4.775
4.775
4.775
4.77
4.77
4.78
4.79
4.795
4.79
4.775
4.77
4.785
4.795
4.79
4.795
4.78
4.78
4.785
4.79
4.79
4.79
4.775
4.78
4.785
4.775
4.785
4.785
4.77
4.775
4.785
4.785
4.785
4.78
4.775
4.775
4.775
4.785
4.78
4.785
4.765
4.765
4.775
4.785
4.785
4.78
4.77
4.77
4.775
4.79
4.785
4.77
4.77
4.76
4.77
4.79
4.78
4.78
4.775
4.77
4.785
4.775
4.785
4.775
4.765
4.765
4.785
4.78
4.78
4.765
4.76
4.76
4.77
4.78
4.79
4.78
4.78
4.785
4.815
4.82
4.825
4.82
4.83
4.83
4.85
4.865
4.855
4.855
4.86
4.865
4.875
4.88
4.88
4.87
4.87
4.87
4.885
4.885
4.89
4.87
4.87
4.87
4.875
4.89
4.885
4.875
4.865
4.865
4.87
4.875
4.875
4.87
4.865
4.86
4.86
4.87
4.87
4.87
4.855
4.85
4.845
4.855
4.86
4.86
4.85
4.84
4.85
4.86
4.865
4.85
4.85
4.84
4.85
4.855
4.85
4.86
4.845
4.845
4.855
4.85
4.85
4.85
4.845
4.845
4.85
4.86
4.85
4.84
4.835
4.83
4.83
4.835
4.85
4.835
4.815
4.815
4.83
4.83
4.84
4.835
4.835
4.83
4.825
4.845
4.845
4.835
4.83
4.83
4.84
4.855
4.86
4.85
4.85
4.84
4.85
4.855
4.855
4.85
4.835
4.84
4.845
4.85
4.845
4.855
4.845
4.845
4.85
4.86
4.855
4.855
4.86
4.865
4.875
4.905
4.92
4.91
4.9
4.91
4.925
4.945
4.945
4.96
4.945
4.955
4.96
4.965
4.965
4.95
4.935
4.93
4.945
4.95
4.95
4.945
4.925
4.915
4.935
4.965
4.985
4.96
4.925
4.9
4.905
4.905
4.875
4.85
4.83
4.81
4.825
4.835
4.835
4.835
4.825
4.815
4.825
4.825
4.825
4.82
4.815
4.815
4.825
4.83
4.825
4.82
4.805
4.8
4.81
4.815
4.82
4.82
4.815
4.805
4.785
4.75
4.715
4.69
4.665
4.61
4.585
4.605
4.68
4.8
4.915
5.07
5.325
5.61
5.835
5.95
5.935
5.74
5.39
5.02
4.765
4.665
4.665
4.72
4.765
4.77
4.775
4.765
4.755
4.75
4.765
4.78
4.775
4.77
4.765
4.755
4.76
4.755
4.76
4.755
4.755
4.75
4.75
4.765
4.765
4.765
4.76
4.755
4.78
4.78
4.775
4.77
4.755
4.755
4.77
4.78
4.77
4.77
4.75
4.76
4.765
4.77
4.775
4.765
4.75
4.75
4.76
4.765
4.765
4.775
4.76
4.76
4.765
4.775
4.78
4.78
4.76
4.765
4.765
4.77
4.77
4.77
4.76
4.77
4.78
4.785
4.78
4.765
4.755
4.76
4.755
4.765
4.765
4.77
4.76
4.745
4.755
4.765
4.75
4.745
4.745
4.74
4.745
4.74
4.755
4.75
4.73
4.715
4.72
4.725
4.74
4.73
4.73
4.72
4.73
4.74
4.735
4.715
4.735
4.735
4.765
4.775
4.785
4.79
4.785
4.8
4.82
4.835
4.84
4.835
4.835
4.825
4.835
4.85
4.85
4.85
4.845
4.835
4.845
4.855
4.865
4.865
4.845
4.84
4.85
4.855
4.845
4.84
4.85
4.85
4.865
4.87
4.875
4.855
4.845
4.83
4.835
4.85
4.855
4.87
4.85
4.84
4.84
4.84
4.84
4.835
4.815
4.825
4.83
4.825
4.84
4.83
4.825
4.815
4.825
4.83
4.835
4.845
4.83
4.815
4.82
4.825
4.83
4.825
4.82
4.81
4.825
4.82
4.835
4.825
4.81
4.805
4.81
4.81
4.81
4.8
4.815
4.825
4.84
4.84
4.84
4.825
4.815
4.815
4.82
4.825
4.83
4.82
4.835
4.825
4.825
4.825
4.825
4.825
4.815
4.81
4.82
4.83
4.83
4.83
4.82
4.82
4.85
4.875
4.88
4.87
4.87
4.87
4.895
4.91
4.925
4.93
4.93
4.93
4.93
4.925
4.935
4.935
4.91
4.92
4.92
4.935
4.92
4.905
4.89
4.88
4.91
4.945
4.945
4.905
4.875
4.855
4.855
4.85
4.83
4.82
4.82
4.795
4.805
4.815
4.83
4.835
4.835
4.835
4.845
4.85
4.84
4.825
4.81
4.79
4.8
4.815
4.82
4.805
4.805
4.795
4.805
4.8
4.79
4.79
4.795
4.795
4.8
4.785
4.755
4.72
4.69
4.645
4.615
4.605
4.67
4.77
4.91
5.06
5.29
5.565
5.835
6.005
6.045
5.88
5.535
5.155
4.87
4.71
4.66
4.68
4.735
4.77
4.77
4.78
4.765
4.76
4.77
4.775
4.77
4.77
4.75
4.755
4.77
4.78
4.78
4.775
4.765
4.75
4.765
4.775
4.78
4.775
4.765
4.76
4.775
4.77
4.775
4.78
4.76
4.755
4.765
4.765
4.77
4.775
4.76
4.755
4.765
4.77
4.775
4.77
4.765
4.77
4.76
4.775
4.775
4.775
4.765
4.755
4.775
4.78
4.77
4.79
4.76
4.76
4.77
4.78
4.785
4.78
4.77
4.775
4.78
4.78
4.78
4.775
4.775
4.75
4.765
4.775
4.775
4.755
4.74
4.74
4.74
4.735
4.745
4.73
4.73
4.72
4.72
4.725
4.725
4.71
4.715
4.705
4.715
4.735
4.74
4.74
4.735
4.74
4.765
4.78
4.795
4.79
4.795
4.815
4.825
4.84
4.835
4.84
4.85
4.85
4.86
4.87
4.875
4.87
4.86
4.865
4.87
4.875
4.885
4.89
4.88
4.87
4.88
4.89
4.89
4.885
4.885
4.88
4.88
4.885
4.89
4.885
4.86
4.87
4.875
4.885
4.885
4.885
4.87
4.86
4.865
4.88
4.88
4.88
4.865
4.87
4.875
4.875
4.885
4.875
4.86
4.86
4.87
4.87
4.875
4.875
4.865
4.865
4.86
4.865
4.865
4.86
4.86
4.86
4.86
4.875
4.88
4.865
4.86
4.845
4.865
4.865
4.865
4.87
4.85
4.855
4.86
4.865
4.87
4.865
4.865
4.84
4.85
4.85
4.865
4.865
4.855
4.85
4.86
4.865
4.875
4.875
4.87
4.855
4.845
4.885
4.875
4.86
4.86
4.865
4.87
4.88
4.89
4.875
4.875
4.87
4.905
4.93
4.94
4.93
4.93
4.935
4.95
4.945
4.96
4.965
4.97
4.965
4.99
4.985
4.98
4.97
4.97
4.955
4.96
4.96
4.97
4.96
4.945
4.935
4.96
4.98
5.005
4.98
4.94
4.92
4.915
4.92
4.885
4.87
4.87
4.855
4.855
4.855
4.87
4.865
4.86
4.86
4.865
4.87
4.87
4.865
4.86
4.855
4.86
4.86
4.86
4.86
4.845
4.835
4.85
4.855
4.855
4.845
4.845
4.84
4.84
4.855
4.82
4.78
4.735
4.705
4.69
4.65
4.67
4.74
4.885
5.04
5.24
5.5
5.79
6.02
6.15
6.1
5.875
5.49
5.075
4.79
4.71
4.74
4.8
4.835
4.83
4.825
4.81
4.81
4.81
4.82
4.82
4.82
4.81
4.8
4.81
4.81
4.82
4.81
4.805
4.805
4.805
4.81
4.815
4.805
4.81
4.805
4.8
4.815
4.815
4.82
4.815
4.795
4.81
4.83
4.82
4.815
4.81
4.8
4.805
4.82
4.825
4.83
4.815
4.805
4.81
4.81
4.825
4.815
4.81
4.8
4.815
4.815
4.815
4.815
4.815
4.805
4.815
4.81
4.82
4.815
4.815
4.815
4.815
4.815
4.815
4.805
4.8
4.8
4.815
4.825
4.82
4.815
4.805
4.8
4.81
4.81
4.82
4.81
4.8
4.81
4.805
4.815
4.82
4.81
4.8
4.8
4.8
4.805
4.815
4.81
4.8
4.805
4.81
4.825
4.835
4.845
4.84
4.85
4.87
4.885
4.895
4.9
4.89
4.895
4.9
4.91
4.93
4.925
4.92
4.91
4.92
4.925
4.935
4.93
4.93
4.93
4.94
4.945
4.94
4.935
4.92
4.925
4.93
4.925
4.94
4.93
4.92
4.91
4.92
4.92
4.915
4.91
4.9
4.91
4.91
4.915
4.925
4.915
4.905
4.905
4.905
4.91
4.915
4.905
4.905
4.9
4.9
4.91
4.91
4.895
4.89
4.89
4.89
4.89
4.905
4.885
4.875
4.875
4.875
4.89
4.895
4.885
4.89
4.875
4.885
4.895
4.895
4.895
4.885
4.87
4.895
4.895
4.895
4.89
4.89
4.875
4.88
4.89
4.905
4.895
4.885
4.89
4.885
4.9
4.91
4.905
4.9
4.89
4.905
4.91
4.915
4.905
4.91
4.9
4.885
4.915
4.905
4.915
4.915
4.91
4.925
4.95
4.965
4.955
4.955
4.95
4.965
4.995
4.99
4.99
5
4.99
5
5.02
5.02
5.01
5
4.98
4.985
4.99
5.005
5
4.975
4.975
4.98
5.025
5.04
5.02
4.975
4.95
4.945
4.94
4.915
4.905
4.9
4.885
4.885
4.89
4.895
4.89
4.875
4.86
4.88
4.88
4.885
4.875
4.885
4.86
4.875
4.87
4.87
4.885
4.875
4.87
4.875
4.88
4.9
4.89
4.89
4.885
4.87
4.865
4.845
4.795
4.77
4.735
4.74
4.71
4.675
4.665
4.71
4.825
4.99
5.155
5.375
5.65
5.88
6.03
6.09
5.975
5.68
5.285
4.96
4.775
4.745
4.79
4.84
4.85
4.845
4.835
4.845
4.85
4.86
4.85
4.84
4.825
4.84
4.84
4.845
4.83
4.825
4.825
4.83
4.84
4.845
4.835
4.835
4.83
4.84
4.84
4.85
4.84
4.825
4.82
4.83
4.85
4.845
4.85
4.835
4.825
4.845
4.85
4.86
4.855
4.845
4.84
4.84
4.845
4.865
4.85
4.85
4.84
4.84
4.85
4.85
4.85
4.835
4.835
4.835
4.855
4.845
4.84
4.83
4.825
4.84
4.835
4.845
4.85
4.85
4.84
4.845
4.845
4.855
4.85
4.84
4.825
4.835
4.845
4.85
4.835
4.835
4.825
4.83
4.835
4.84
4.835
4.83
4.81
4.815
4.82
4.825
4.815
4.81
4.805
4.81
4.815
4.835
4.83
4.825
4.825
4.83
4.845
4.86
4.865
4.875
4.86
4.875
4.905
4.9
4.905
4.9
4.905
4.915
4.94
4.92
4.93
4.92
4.925
4.935
4.945
4.94
4.93
4.945
4.925
4.93
4.93
4.935
4.935
4.925
4.925
4.93
4.935
4.95
4.945
4.925
4.91
4.92
4.93
4.925
4.925
4.92
4.91
4.92
4.92
4.92
4.915
4.905
4.9
4.915
4.925
4.93
4.91
4.89
4.895
4.89
4.905
4.9
4.9
4.905
4.895
4.915
4.91
4.915
4.91
4.905
4.895
4.905
4.9
4.905
4.9
4.89
4.885
4.89
4.9
4.905
4.895
4.885
4.88
4.9
4.89
4.89
4.9
4.88
4.87
4.88
4.89
4.89
4.88
4.89
4.885
4.88
4.9
4.91
4.91
4.895
4.895
4.885
4.89
4.885
4.88
4.875
4.87
4.88
4.9
4.905
4.9
4.9
4.89
4.905
4.92
4.925
4.935
4.94
4.935
4.935
4.96
4.965
4.965
4.975
4.965
4.985
4.995
5
4.995
4.975
4.975
4.975
4.985
4.985
4.97
4.965
4.97
4.975
4.965
4.95
4.945
4.955
4.96
4.98
5
5.015
5.01
4.98
4.945
4.94
4.94
4.94
4.92
4.895
4.875
4.865
4.875
4.87
4.855
4.84
4.845
4.86
4.875
4.875
4.865
4.845
4.835
4.855
4.855
4.865
4.865
4.845
4.835
4.835
4.84
4.855
4.83
4.825
4.82
4.835
4.83
4.815
4.78
4.75
4.73
4.715
4.655
4.645
4.66
4.745
4.85
4.985
5.18
5.42
5.685
5.88
6.01
6.005
5.87
5.56
5.21
4.915
4.76
4.7
4.715
4.76
4.79
4.79
4.78
4.79
4.805
4.83
4.815
4.815
4.8
4.82
4.83
4.815
4.81
4.815
4.805
4.795
4.805
4.81
4.81
4.805
4.805
4.805
4.805
4.815
4.805
4.805
4.8
4.805
4.805
4.8
4.795
4.79
4.785
4.79
4.795
4.81
4.81
4.81
4.8
4.815
4.81
4.805
4.8
4.795
4.78
4.79
4.8
4.8
4.805
4.805
4.8
4.815
4.8
4.8
4.79
4.79
4.785
4.8
4.82
4.82
4.805
4.805
4.81
4.815
4.825
4.82
4.82
4.81
4.8
4.805
4.8
4.795
4.8
4.79
4.785
4.8
4.805
4.805
4.79
4.785
4.77
4.775
4.78
4.78
4.78
4.78
4.76
4.755
4.77
4.77
4.76
4.745
4.755
4.75
4.755
4.77
4.77
4.78
4.78
4.785
4.79
4.815
4.82
4.83
4.845
4.845
4.86
4.855
4.865
4.865
4.875
4.895
4.91
4.91
4.9
4.895
4.89
4.905
4.905
4.915
4.9
4.91
4.895
4.9
4.91
4.91
4.905
4.9
4.885
4.9
4.915
4.915
4.905
4.895
4.89
4.895
4.905
4.9
4.9
4.905
4.89
4.88
4.895
4.895
4.89
4.895
4.88
4.89
4.885
4.875
4.865
4.865
4.86
4.86
4.87
4.88
4.875
4.87
4.865
4.875
4.895
4.875
4.855
4.85
4.835
4.845
4.86
4.865
4.86
4.87
4.855
4.855
4.86
4.875
4.87
4.865
4.84
4.855
4.865
4.87
4.86
4.855
4.855
4.865
4.87
4.865
4.855
4.845
4.84
4.865
4.87
4.875
4.87
4.865
4.845
4.86
4.875
4.885
4.87
4.855
4.855
4.865
4.86
4.865
4.865
4.88
4.875
4.89
4.9
4.92
4.915
4.905
4.92
4.92
4.945
4.96
4.96
4.955
4.95
4.96
4.98
4.975
4.97
4.955
4.95
4.945
4.955
4.95
4.945
4.94
4.915
4.93
4.95
4.96
4.975
4.975
4.935
4.915
4.91
4.9
4.88
4.855
4.84
4.845
4.855
4.84
4.84
4.84
4.84
4.845
4.85
4.845
4.84
4.825
4.83
4.835
4.845
4.845
4.84
4.845
4.825
4.835
4.84
4.835
4.845
4.82
4.815
4.795
4.765
4.75
4.72
4.68
4.63
4.62
4.675
4.78
4.91
5.03
5.215
5.47
5.74
5.96
6.105
6.12
5.98
5.67
5.315
5.025
4.83
4.735
4.69
4.675
4.69
4.705
4.725
4.77
4.78
4.785
4.795
4.8
4.805
4.795
4.795
4.8
4.805
4.81
4.805
4.795
4.785
4.805
4.815
4.815
4.805
4.8
4.8
4.8
4.81
4.8
4.82
4.81
4.8
4.8
4.815
4.815
4.805
4.81
4.805
4.81
4.825
4.82
4.825
4.815
4.8
4.815
4.82
4.82
4.82
4.81
4.8
4.82
4.815
4.83
4.825
4.815
4.79
4.805
4.81
4.825
4.81
4.805
4.8
4.82
4.81
4.82
4.825
4.805
4.8
4.81
4.815
4.815
4.82
4.82
4.815
4.82
4.815
4.82
4.82
4.82
4.8
4.795
4.805
4.815
4.81
4.785
4.77
4.775
4.805
4.785
4.79
4.775
4.765
4.775
4.775
4.77
4.78
4.765
4.755
4.77
4.77
4.78
4.775
4.78
4.77
4.785
4.805
4.81
4.83
4.825
4.83
4.84
4.865
4.88
4.885
4.875
4.88
4.895
4.9
4.91
4.91
4.915
4.91
4.91
4.925
4.935
4.93
4.925
4.9
4.92
4.92
4.935
4.93
4.915
4.915
4.915
4.915
4.925
4.925
4.92
4.915
4.92
4.92
4.93
4.915
4.915
4.91
4.92
4.92
4.925
4.915
4.9
4.9
4.9
4.91
4.91
4.91
4.905
4.89
4.9
4.905
4.895
4.9
4.895
4.885
4.9
4.9
4.91
4.89
4.875
4.875
4.885
4.895
4.885
4.89
4.875
4.865
4.875
4.885
4.885
4.885
4.885
4.875
4.88
4.885
4.895
4.88
4.88
4.875
4.885
4.885
4.885
4.885
4.88
4.875
4.88
4.885
4.895
4.88
4.87
4.865
4.87
4.885
4.9
4.895
4.88
4.89
4.895
4.895
4.9
4.885
4.885
4.875
4.885
4.895
4.895
4.9
4.89
4.885
4.9
4.91
4.93
4.93
4.94
4.935
4.96
4.97
4.97
4.975
4.97
4.965
4.985
5
5.005
5.005
5.005
4.985
4.99
4.99
4.995
4.975
4.98
4.975
4.98
4.98
4.98
4.99
5.005
5.01
5.005
4.99
4.975
4.965
4.95
4.93
4.93
4.93
4.935
4.915
4.9
4.885
4.885
4.895
4.88
4.885
4.885
4.885
4.885
4.89
4.89
4.88
4.87
4.875
4.875
4.885
4.875
4.88
4.88
4.865
4.865
4.87
4.88
4.87
4.865
4.84
4.825
4.8
4.76
4.745
4.715
4.665
4.645
4.705
4.82
4.96
5.125
5.325
5.61
5.89
6.105
6.165
6.075
5.765
5.34
4.975
4.775
4.735
4.775
4.82
4.84
4.86
4.845
4.85
4.85
4.84
4.845
4.845
4.85
4.83
4.83
4.825
4.825
4.825
4.84
4.84
4.83
4.83
4.825
4.835
4.825
4.84
4.83
4.83
4.84
4.85
4.855
4.845
4.845
4.835
4.835
4.85
4.845
4.845
4.835
4.835
4.85
4.84
4.84
4.835
4.84
4.825
4.835
4.845
4.845
4.84
4.835
4.83
4.83
4.84
4.845
4.845
4.845
4.83
4.845
4.855
4.845
4.855
4.845
4.83
4.84
4.855
4.85
4.85
4.84
4.84
4.845
4.85
4.855
4.85
4.835
4.835
4.845
4.84
4.845
4.84
4.845
4.83
4.835
4.85
4.84
4.84
4.84
4.83
4.83
4.84
4.84
4.835
4.83
4.83
4.83
4.83
4.83
4.825
4.825
4.83
4.825
4.845
4.86
4.86
4.845
4.855
4.865
4.88
4.885
4.895
4.905
4.9
4.91
4.925
4.925
4.93
4.945
4.93
4.935
4.95
4.965
4.95
4.945
4.925
4.95
4.96
4.95
4.955
4.935
4.925
4.94
4.95
4.955
4.955
4.94
4.93
4.93
4.94
4.95
4.945
4.935
4.93
4.93
4.935
4.94
4.925
4.93
4.92
4.93
4.93
4.93
4.925
4.92
4.915
4.92
4.92
4.92
4.925
4.92
4.905
4.91
4.92
4.93
4.915
4.91
4.91
4.905
4.915
4.92
4.915
4.9
4.89
4.895
4.91
4.905
4.915
4.9
4.895
4.89
4.89
4.905
4.9
4.9
4.89
4.895
4.9
4.895
4.9
4.89
4.87
4.885
4.895
4.91
4.895
4.89
4.885
4.895
4.895
4.9
4.895
4.9
4.885
4.89
4.905
4.9
4.895
4.9
4.89
4.89
4.905
4.9
4.9
4.905
4.9
4.915
4.935
4.95
4.965
4.96
4.96
4.96
4.97
4.98
4.99
4.985
4.995
5
5.005
5.015
5.005
5
4.985
4.975
4.98
4.98
4.98
4.975
4.97
4.96
4.97
4.99
5.02
5.01
4.98
4.96
4.95
4.945
4.945
4.92
4.905
4.895
4.895
4.905
4.9
4.89
4.87
4.87
4.87
4.87
4.875
4.865
4.865
4.865
4.87
4.875
4.865
4.855
4.845
4.86
4.86
4.865
4.87
4.85
4.845
4.855
4.855
4.86
4.85
4.83
4.82
4.81
4.775
4.755
4.73
4.69
4.645
4.625
4.67
4.77
4.895
5.025
5.18
5.41
5.675
5.9
6.035
6.045
5.93
