0,797000000000000
0,695000000000000
0,711000000000000
0,711000000000000
0,703000000000000
0,711000000000000
0,680000000000000
0,695000000000000
0,664000000000000
0,688000000000000
0,656000000000000
0,672000000000000
0,680000000000000
0,711000000000000
0,703000000000000
0,727000000000000
0,719000000000000
0,711000000000000
0,719000000000000
0,734000000000000
0,695000000000000
0,711000000000000
0,727000000000000
0,719000000000000
0,711000000000000
0,703000000000000
0,711000000000000
0,703000000000000
0,727000000000000
0,703000000000000
0,711000000000000
0,703000000000000
0,727000000000000
0,695000000000000
0,719000000000000
0,711000000000000
0,719000000000000
0,727000000000000
0,711000000000000
0,711000000000000
0,719000000000000
0,695000000000000
0,695000000000000
0,703000000000000
0,695000000000000
0,719000000000000
0,727000000000000
0,734000000000000
0,719000000000000
0,750000000000000
0,734000000000000
0,734000000000000
0,711000000000000
0,719000000000000
0,727000000000000
0,711000000000000
0,719000000000000
0,703000000000000
0,711000000000000
0,688000000000000
0,688000000000000
0,680000000000000
0,680000000000000
0,680000000000000
0,672000000000000
0,664000000000000
0,641000000000000
0,648000000000000
0,633000000000000
0,641000000000000
0,656000000000000
0,656000000000000
0,664000000000000
0,703000000000000
0,703000000000000
0,727000000000000
0,758000000000000
0,758000000000000
0,750000000000000
0,727000000000000
0,734000000000000
0,688000000000000
0,695000000000000
0,680000000000000
0,680000000000000
0,664000000000000
0,680000000000000
0,695000000000000
0,695000000000000
0,680000000000000
0,672000000000000
0,656000000000000
0,648000000000000
0,664000000000000
0,672000000000000
0,680000000000000
0,719000000000000
0,711000000000000
0,742000000000000
0,727000000000000
0,711000000000000
0,680000000000000
0,664000000000000
0,664000000000000
0,641000000000000
0,617000000000000
0,617000000000000
0,617000000000000
0,625000000000000
0,625000000000000
0,664000000000000
0,688000000000000
0,695000000000000
0,695000000000000
0,719000000000000
0,719000000000000
0,719000000000000
0,719000000000000
0,742000000000000
0,727000000000000
0,711000000000000
0,680000000000000
0,688000000000000
0,688000000000000
0,727000000000000
0,719000000000000
0,711000000000000
0,703000000000000
0,711000000000000
0,695000000000000
0,680000000000000
0,672000000000000
0,672000000000000
0,656000000000000
0,633000000000000
0,641000000000000
0,617000000000000
0,633000000000000
0,656000000000000
0,688000000000000
0,719000000000000
0,758000000000000
0,773000000000000
0,789000000000000
0,766000000000000
0,758000000000000
0,742000000000000
0,758000000000000
0,734000000000000
0,742000000000000
0,742000000000000
0,711000000000000
0,727000000000000
0,688000000000000
0,672000000000000
0,641000000000000
0,633000000000000
0,641000000000000
0,664000000000000
0,664000000000000
0,656000000000000
0,672000000000000
0,680000000000000
0,656000000000000
0,656000000000000
0,625000000000000
0,641000000000000
0,625000000000000
0,609000000000000
0,609000000000000
0,602000000000000
0,609000000000000
0,586000000000000
0,586000000000000
0,562000000000000
0,578000000000000
0,570000000000000
0,539000000000000
0,555000000000000
0,539000000000000
0,562000000000000
0,555000000000000
0,547000000000000
0,555000000000000
0,555000000000000
0,586000000000000
0,586000000000000
0,617000000000000
0,617000000000000
0,641000000000000
0,656000000000000
0,672000000000000
0,656000000000000
0,664000000000000
0,664000000000000
0,641000000000000
0,648000000000000
0,672000000000000
0,664000000000000
0,648000000000000
0,656000000000000
0,625000000000000
0,633000000000000
0,617000000000000
0,617000000000000
0,633000000000000
0,617000000000000
0,625000000000000
0,602000000000000
0,609000000000000
0,594000000000000
0,594000000000000
0,570000000000000
0,594000000000000
0,570000000000000
0,578000000000000
0,586000000000000
0,586000000000000
0,609000000000000
0,648000000000000
0,664000000000000
0,672000000000000
0,680000000000000
0,680000000000000
0,688000000000000
0,664000000000000
0,680000000000000
0,656000000000000
0,672000000000000
0,664000000000000
0,680000000000000
0,656000000000000
0,656000000000000
0,641000000000000
0,641000000000000
0,609000000000000
0,617000000000000
0,602000000000000
0,594000000000000
0,570000000000000
0,594000000000000
0,609000000000000
0,625000000000000
0,680000000000000
0,688000000000000
0,719000000000000
0,727000000000000
0,742000000000000
0,734000000000000
0,727000000000000
0,727000000000000
0,719000000000000
0,727000000000000
0,680000000000000
0,703000000000000
0,719000000000000
0,711000000000000
0,711000000000000
0,688000000000000
0,664000000000000
0,664000000000000
0,648000000000000
0,648000000000000
0,648000000000000
0,656000000000000
0,672000000000000
0,688000000000000
0,688000000000000
0,672000000000000
0,664000000000000
0,680000000000000
0,664000000000000
0,672000000000000
0,672000000000000
0,688000000000000
0,672000000000000
0,656000000000000
0,656000000000000
0,648000000000000
0,648000000000000
0,633000000000000
0,633000000000000
0,609000000000000
0,641000000000000
0,648000000000000
0,648000000000000
0,641000000000000
0,680000000000000
0,688000000000000
0,711000000000000
0,695000000000000
0,719000000000000
0,734000000000000
0,734000000000000
0,711000000000000
0,719000000000000
0,719000000000000
0,719000000000000
0,703000000000000
0,664000000000000
0,664000000000000
0,648000000000000
0,672000000000000
0,664000000000000
0,711000000000000
0,734000000000000
0,750000000000000
0,742000000000000
0,734000000000000
0,711000000000000
0,711000000000000
0,680000000000000
0,680000000000000
0,648000000000000
0,656000000000000
0,625000000000000
0,625000000000000
0,617000000000000
0,633000000000000
0,625000000000000
0,617000000000000
0,625000000000000
0,602000000000000
0,594000000000000
0,594000000000000
0,594000000000000
0,602000000000000
0,633000000000000
0,664000000000000
0,688000000000000
0,703000000000000
0,703000000000000
0,695000000000000
0,711000000000000
0,695000000000000
0,688000000000000
0,656000000000000
0,664000000000000
0,648000000000000
0,656000000000000
0,648000000000000
0,664000000000000
0,641000000000000
0,656000000000000
0,641000000000000
0,641000000000000
0,633000000000000
0,617000000000000
0,625000000000000
0,617000000000000
0,641000000000000
0,641000000000000
0,648000000000000
0,656000000000000
0,852000000000000
0,828000000000000
0,781000000000000
0,758000000000000
0,711000000000000
0,711000000000000
0,680000000000000
0,688000000000000
0,664000000000000
0,695000000000000
0,672000000000000
0,672000000000000
0,664000000000000
0,688000000000000
0,656000000000000
0,656000000000000
0,648000000000000
0,641000000000000
0,633000000000000
0,633000000000000
0,609000000000000
0,625000000000000
0,602000000000000
0,602000000000000
0,602000000000000
0,602000000000000
0,617000000000000
0,609000000000000
0,633000000000000
0,633000000000000
0,633000000000000
0,633000000000000
0,641000000000000
0,625000000000000
0,633000000000000
0,625000000000000
0,633000000000000
0,609000000000000
0,609000000000000
0,602000000000000
0,594000000000000
0,609000000000000
0,586000000000000
0,609000000000000
0,617000000000000
0,617000000000000
0,648000000000000
0,633000000000000
0,641000000000000
0,609000000000000
0,609000000000000
0,594000000000000
0,586000000000000
0,578000000000000
0,578000000000000
0,578000000000000
0,578000000000000
0,570000000000000
0,578000000000000
0,562000000000000
0,555000000000000
0,555000000000000
0,555000000000000
0,539000000000000
0,547000000000000
0,531000000000000
0,547000000000000
0,539000000000000
0,539000000000000
0,562000000000000
0,539000000000000
0,555000000000000
0,562000000000000
0,562000000000000
0,562000000000000
0,570000000000000
0,586000000000000
0,562000000000000
0,578000000000000
0,578000000000000
0,570000000000000
0,562000000000000
0,578000000000000
0,570000000000000
0,570000000000000
0,586000000000000
0,570000000000000
0,578000000000000
0,578000000000000
0,562000000000000
0,570000000000000
0,562000000000000
0,578000000000000
0,570000000000000
0,570000000000000
0,570000000000000
0,570000000000000
0,578000000000000
0,578000000000000
0,562000000000000
0,594000000000000
0,562000000000000
0,570000000000000
0,570000000000000
0,578000000000000
0,562000000000000
0,578000000000000
0,578000000000000
0,578000000000000
0,594000000000000
0,578000000000000
0,578000000000000
0,578000000000000
0,570000000000000
0,578000000000000
0,570000000000000
0,570000000000000
0,594000000000000
0,586000000000000
0,586000000000000
0,594000000000000
0,578000000000000
0,570000000000000
0,578000000000000
0,562000000000000
0,570000000000000
0,578000000000000
0,555000000000000
0,562000000000000
0,555000000000000
0,578000000000000
0,547000000000000
0,570000000000000
0,562000000000000
0,547000000000000
0,555000000000000
0,555000000000000
0,562000000000000
0,562000000000000
0,547000000000000
0,570000000000000
0,562000000000000
0,539000000000000
0,570000000000000
0,539000000000000
0,562000000000000
0,555000000000000
0,562000000000000
0,570000000000000
0,562000000000000
0,578000000000000
0,570000000000000
0,586000000000000
0,578000000000000
0,594000000000000
0,570000000000000
0,594000000000000
0,586000000000000
0,586000000000000
0,602000000000000
0,594000000000000
0,617000000000000
0,625000000000000
0,641000000000000
0,641000000000000
0,648000000000000
0,633000000000000
0,641000000000000
0,664000000000000
0,633000000000000
0,633000000000000
0,641000000000000
0,656000000000000
0,648000000000000
0,656000000000000
0,656000000000000
0,672000000000000
0,656000000000000
0,672000000000000
0,672000000000000
0,680000000000000
0,664000000000000
0,680000000000000
0,680000000000000
0,680000000000000
0,672000000000000
0,695000000000000
0,680000000000000
0,695000000000000
0,680000000000000
0,688000000000000
0,711000000000000
0,695000000000000
0,680000000000000
0,672000000000000
0,648000000000000
0,664000000000000
0,648000000000000
0,648000000000000
0,633000000000000
0,641000000000000
0,648000000000000
0,648000000000000
0,656000000000000
0,656000000000000
0,648000000000000
0,633000000000000
0,625000000000000
0,617000000000000
0,617000000000000
0,625000000000000
0,625000000000000
0,641000000000000
0,656000000000000
0,641000000000000
0,656000000000000
0,633000000000000
0,680000000000000
0,641000000000000
0,641000000000000
0,625000000000000
0,648000000000000
0,625000000000000
0,641000000000000
0,641000000000000
0,656000000000000
0,656000000000000
0,672000000000000
0,664000000000000
0,688000000000000
0,672000000000000
0,695000000000000
0,695000000000000
0,711000000000000
0,695000000000000
0,711000000000000
0,711000000000000
0,742000000000000
0,719000000000000
0,727000000000000
0,727000000000000
0,734000000000000
0,727000000000000
0,719000000000000
0,742000000000000
0,719000000000000
0,727000000000000
0,695000000000000
0,719000000000000
0,703000000000000
0,703000000000000
0,711000000000000
0,711000000000000
0,703000000000000
0,703000000000000
0,703000000000000
0,703000000000000
0,695000000000000
0,703000000000000
0,695000000000000
0,711000000000000
0,711000000000000
0,688000000000000
0,703000000000000
0,695000000000000
0,695000000000000
0,711000000000000
0,711000000000000
0,719000000000000
0,719000000000000
0,695000000000000
0,711000000000000
0,711000000000000
0,688000000000000
0,703000000000000
0,711000000000000
0,719000000000000
0,695000000000000
0,711000000000000
0,711000000000000
0,656000000000000
0,664000000000000
0,648000000000000
0,680000000000000
0,680000000000000
0,703000000000000
0,703000000000000
0,703000000000000
0,711000000000000
0,719000000000000
0,703000000000000
0,703000000000000
0,695000000000000
0,695000000000000
0,695000000000000
0,695000000000000
0,727000000000000
0,711000000000000
0,711000000000000
0,695000000000000
0,727000000000000
0,711000000000000
0,711000000000000
0,664000000000000
0,711000000000000
0,656000000000000
0,680000000000000
0,680000000000000
0,688000000000000
0,680000000000000
0,734000000000000
0,672000000000000
0,695000000000000
0,695000000000000
0,695000000000000
0,688000000000000
0,625000000000000
0,625000000000000
0,617000000000000
0,594000000000000
0,602000000000000
0,594000000000000
0,609000000000000
0,617000000000000
0,609000000000000
0,625000000000000
0,617000000000000
0,625000000000000
0,625000000000000
0,648000000000000
0,609000000000000
0,617000000000000
0,609000000000000
0,617000000000000
0,617000000000000
0,625000000000000
0,633000000000000
0,641000000000000
0,625000000000000
0,633000000000000
0,625000000000000
0,617000000000000
0,602000000000000
0,609000000000000
0,617000000000000
0,625000000000000
0,641000000000000
0,633000000000000
0,625000000000000
0,633000000000000
0,633000000000000
0,633000000000000
0,617000000000000
0,625000000000000
0,617000000000000
0,617000000000000
0,602000000000000
0,617000000000000
0,602000000000000
0,609000000000000
0,617000000000000
0,617000000000000
0,617000000000000
0,609000000000000
0,625000000000000
0,609000000000000
0,609000000000000
0,609000000000000
0,609000000000000
0,594000000000000
0,602000000000000
0,617000000000000
0,617000000000000
0,641000000000000
0,641000000000000
0,672000000000000
0,633000000000000
0,641000000000000
0,641000000000000
0,633000000000000
0,633000000000000
0,633000000000000
0,617000000000000
0,617000000000000
0,609000000000000
0,602000000000000
0,602000000000000
0,609000000000000
0,602000000000000
0,609000000000000
0,609000000000000
0,602000000000000
0,609000000000000
0,609000000000000
0,602000000000000
0,609000000000000
0,617000000000000
0,609000000000000
0,609000000000000
0,625000000000000
0,625000000000000
0,633000000000000
0,633000000000000
0,641000000000000
0,625000000000000
0,633000000000000
0,633000000000000
0,633000000000000
0,625000000000000
0,625000000000000
0,648000000000000
0,617000000000000
0,625000000000000
0,633000000000000
0,633000000000000
0,617000000000000
0,633000000000000
0,625000000000000
0,625000000000000
0,641000000000000
0,633000000000000
0,641000000000000
0,648000000000000
0,648000000000000
0,641000000000000
0,641000000000000
0,633000000000000
0,648000000000000
0,617000000000000
0,633000000000000
0,625000000000000
0,641000000000000
0,617000000000000
0,625000000000000
0,617000000000000
0,625000000000000
0,617000000000000
0,625000000000000
0,625000000000000
0,625000000000000
0,617000000000000
0,617000000000000
0,617000000000000
0,625000000000000
0,648000000000000
0,641000000000000
0,641000000000000
0,625000000000000
0,641000000000000
0,625000000000000
0,648000000000000
0,625000000000000
0,625000000000000
0,625000000000000
0,617000000000000
0,609000000000000
0,609000000000000
0,594000000000000
0,594000000000000
0,594000000000000
0,586000000000000
0,625000000000000
0,617000000000000
0,633000000000000
0,625000000000000
0,617000000000000
0,625000000000000
0,617000000000000
0,609000000000000
0,609000000000000
0,602000000000000
0,594000000000000
0,625000000000000
0,602000000000000
0,602000000000000
0,617000000000000
0,602000000000000
0,617000000000000
0,625000000000000
0,609000000000000
0,609000000000000
0,609000000000000
0,602000000000000
0,609000000000000
0,609000000000000
0,617000000000000
0,625000000000000
0,648000000000000
0,648000000000000
0,641000000000000
0,656000000000000
0,641000000000000
0,641000000000000
0,633000000000000
0,648000000000000
0,641000000000000
0,648000000000000
0,633000000000000
0,664000000000000
0,648000000000000
0,641000000000000
0,633000000000000
0,625000000000000
0,641000000000000
0,641000000000000
0,664000000000000
0,656000000000000
0,648000000000000
0,633000000000000
0,625000000000000
0,609000000000000
0,609000000000000
0,617000000000000
0,641000000000000
0,625000000000000
0,648000000000000
0,648000000000000
0,648000000000000
0,633000000000000
0,633000000000000
0,641000000000000
0,617000000000000
0,625000000000000
0,625000000000000
0,609000000000000
0,602000000000000
0,609000000000000
0,617000000000000
0,625000000000000
0,656000000000000
0,648000000000000
0,648000000000000
0,680000000000000
0,648000000000000
0,656000000000000
0,648000000000000
0,656000000000000
0,633000000000000
0,664000000000000
0,680000000000000
0,672000000000000
0,672000000000000
0,664000000000000
0,664000000000000
0,672000000000000
0,656000000000000
0,648000000000000
0,656000000000000
0,656000000000000
0,664000000000000
0,656000000000000
0,648000000000000
0,641000000000000
0,656000000000000
0,656000000000000
0,664000000000000
0,656000000000000
0,664000000000000
0,664000000000000
0,672000000000000
0,641000000000000
0,664000000000000
0,656000000000000
0,664000000000000
0,633000000000000
0,641000000000000
0,633000000000000
0,648000000000000
0,641000000000000
0,648000000000000
0,648000000000000
0,641000000000000
0,633000000000000
0,633000000000000
0,633000000000000
0,656000000000000
0,641000000000000
0,641000000000000
0,648000000000000
0,656000000000000
0,648000000000000
0,641000000000000
0,648000000000000
0,641000000000000
0,648000000000000
0,648000000000000
0,656000000000000
0,641000000000000
0,656000000000000
0,656000000000000
0,641000000000000
0,641000000000000
0,656000000000000
0,641000000000000
0,648000000000000
0,633000000000000
0,633000000000000
0,633000000000000
0,633000000000000
0,625000000000000
0,602000000000000
0,609000000000000
0,586000000000000
0,602000000000000
0,594000000000000
0,602000000000000
0,594000000000000
0,602000000000000
0,617000000000000
0,609000000000000
0,617000000000000
0,594000000000000
0,609000000000000
0,602000000000000
0,609000000000000
0,602000000000000
0,609000000000000
0,602000000000000
0,594000000000000
0,594000000000000
0,578000000000000
0,586000000000000
0,570000000000000
0,570000000000000
0,578000000000000
0,562000000000000
0,570000000000000
0,594000000000000
0,562000000000000
0,578000000000000
0,594000000000000
0,586000000000000
0,586000000000000
0,594000000000000
0,586000000000000
0,609000000000000
0,586000000000000
0,602000000000000
0,602000000000000
0,602000000000000
0,609000000000000
0,594000000000000
0,609000000000000
0,594000000000000
0,602000000000000
0,586000000000000
0,586000000000000
0,578000000000000
0,578000000000000
0,586000000000000
0,570000000000000
0,586000000000000
0,586000000000000
0,586000000000000
0,586000000000000
0,570000000000000
0,578000000000000
0,562000000000000
0,578000000000000
0,562000000000000
0,570000000000000
0,578000000000000
0,562000000000000
0,578000000000000
0,555000000000000
0,578000000000000
0,578000000000000
0,578000000000000
0,578000000000000
0,594000000000000
0,594000000000000
0,594000000000000
0,594000000000000
0,586000000000000
0,609000000000000
0,633000000000000
0,633000000000000
0,625000000000000
0,648000000000000
0,641000000000000
0,625000000000000
0,633000000000000
0,617000000000000
0,625000000000000
0,602000000000000
0,617000000000000
0,602000000000000
0,602000000000000
0,594000000000000
0,586000000000000
0,594000000000000
0,578000000000000
0,578000000000000
0,570000000000000
0,578000000000000
0,570000000000000
0,586000000000000
0,578000000000000
0,555000000000000
0,570000000000000
0,570000000000000
0,586000000000000
0,602000000000000
0,609000000000000
0,617000000000000
0,625000000000000
0,625000000000000
0,602000000000000
0,602000000000000
0,602000000000000
0,602000000000000
0,586000000000000
0,586000000000000
0,594000000000000
0,594000000000000
0,594000000000000
0,570000000000000
0,594000000000000
0,562000000000000
0,570000000000000
0,578000000000000
0,578000000000000
0,586000000000000
0,586000000000000
0,586000000000000
0,578000000000000
0,586000000000000
0,594000000000000
0,594000000000000
0,602000000000000
0,602000000000000
0,617000000000000
0,594000000000000
0,602000000000000
0,594000000000000
0,609000000000000
0,586000000000000
0,609000000000000
0,609000000000000
0,602000000000000
0,609000000000000
0,594000000000000
0,609000000000000
0,586000000000000
0,602000000000000
0,578000000000000
0,578000000000000
0,578000000000000
0,586000000000000
0,602000000000000
0,602000000000000
0,602000000000000
0,594000000000000
0,602000000000000
0,594000000000000
0,586000000000000
0,609000000000000
0,602000000000000
0,609000000000000
0,617000000000000
0,625000000000000
0,609000000000000
0,617000000000000
0,609000000000000
0,617000000000000
0,617000000000000
0,609000000000000
0,625000000000000
0,594000000000000
0,602000000000000
0,594000000000000
0,617000000000000
0,602000000000000
0,594000000000000
0,609000000000000
0,586000000000000
0,617000000000000
0,609000000000000
0,641000000000000
0,641000000000000
0,656000000000000
0,641000000000000
0,648000000000000
0,641000000000000
0,648000000000000
0,625000000000000
0,625000000000000
0,633000000000000
0,617000000000000
0,625000000000000
0,617000000000000
0,625000000000000
0,625000000000000
0,641000000000000
0,625000000000000
0,625000000000000
0,625000000000000
0,625000000000000
0,609000000000000
0,625000000000000
0,609000000000000
0,617000000000000
0,633000000000000
0,617000000000000
0,609000000000000
0,625000000000000
0,633000000000000
0,625000000000000
0,633000000000000
0,648000000000000
0,625000000000000
0,625000000000000
0,602000000000000
0,609000000000000
0,602000000000000
0,609000000000000
0,594000000000000
0,578000000000000
0,578000000000000
0,570000000000000
0,570000000000000
0,586000000000000
0,570000000000000
0,586000000000000
0,602000000000000
0,578000000000000
0,602000000000000
0,602000000000000
0,602000000000000
0,617000000000000
0,602000000000000
0,617000000000000
0,617000000000000
0,625000000000000
0,617000000000000
0,625000000000000
0,594000000000000
0,617000000000000
0,602000000000000
0,602000000000000
0,602000000000000
0,586000000000000
0,602000000000000
0,594000000000000
0,609000000000000
0,586000000000000
0,609000000000000
0,594000000000000
0,594000000000000
0,609000000000000
0,578000000000000
0,586000000000000
0,594000000000000
0,594000000000000
0,586000000000000
0,594000000000000
0,586000000000000
0,602000000000000
0,602000000000000
0,586000000000000
0,594000000000000
0,578000000000000
0,586000000000000
0,586000000000000
0,578000000000000
0,578000000000000
0,578000000000000
0,578000000000000
0,570000000000000
0,578000000000000
0,562000000000000
0,570000000000000
0,586000000000000
0,570000000000000
0,578000000000000
0,570000000000000
0,586000000000000
0,578000000000000
0,570000000000000
0,578000000000000
0,578000000000000
0,570000000000000
0,555000000000000
0,570000000000000
0,562000000000000
0,570000000000000
0,562000000000000
0,555000000000000
0,570000000000000
0,562000000000000
0,555000000000000
0,578000000000000
0,555000000000000
0,570000000000000
0,555000000000000
0,562000000000000
0,555000000000000
0,547000000000000
0,555000000000000
0,547000000000000
0,547000000000000
0,547000000000000
0,547000000000000
0,547000000000000
0,539000000000000
0,539000000000000
0,547000000000000
0,539000000000000
0,547000000000000
0,539000000000000
0,547000000000000
0,547000000000000
0,547000000000000
0,539000000000000
0,547000000000000
0,539000000000000
0,547000000000000
0,539000000000000
0,547000000000000
0,531000000000000
0,539000000000000
0,539000000000000
0,531000000000000
0,539000000000000
0,539000000000000
0,539000000000000
0,539000000000000
0,531000000000000
0,539000000000000
0,523000000000000
0,539000000000000
0,539000000000000
0,531000000000000
0,547000000000000
0,531000000000000
0,539000000000000
0,539000000000000
0,539000000000000
0,531000000000000
0,531000000000000
0,539000000000000
0,539000000000000
0,539000000000000
0,539000000000000
0,523000000000000
0,539000000000000
0,547000000000000
0,516000000000000
0,523000000000000
0,531000000000000
0,531000000000000
0,523000000000000
0,531000000000000
0,531000000000000
0,531000000000000
0,531000000000000
0,539000000000000
0,539000000000000
0,547000000000000
0,539000000000000
0,539000000000000
0,555000000000000
0,531000000000000
0,547000000000000
0,531000000000000
0,539000000000000
0,555000000000000
0,531000000000000
0,547000000000000
0,539000000000000
0,539000000000000
0,539000000000000
0,539000000000000
0,555000000000000
0,547000000000000
0,547000000000000
0,555000000000000
0,547000000000000
0,555000000000000
0,562000000000000
0,547000000000000
0,555000000000000
0,539000000000000
0,547000000000000
0,539000000000000
0,547000000000000
0,547000000000000
0,539000000000000
0,555000000000000
0,531000000000000
0,547000000000000
0,547000000000000
0,539000000000000
0,539000000000000
0,531000000000000
0,523000000000000
0,539000000000000
0,516000000000000
0,531000000000000
0,516000000000000
0,531000000000000
0,523000000000000
0,516000000000000
0,531000000000000
0,523000000000000
0,531000000000000
0,539000000000000
0,531000000000000
0,523000000000000
0,531000000000000
0,523000000000000
0,523000000000000
0,508000000000000
0,516000000000000
0,516000000000000
0,516000000000000
0,516000000000000
0,516000000000000
0,547000000000000
0,531000000000000
0,539000000000000
0,539000000000000
0,555000000000000
0,555000000000000
0,555000000000000
0,547000000000000
0,562000000000000
0,539000000000000
0,555000000000000
0,562000000000000
0,555000000000000
0,562000000000000
0,539000000000000
0,562000000000000
0,555000000000000
0,562000000000000
0,570000000000000
0,555000000000000
0,562000000000000
0,547000000000000
0,555000000000000
0,570000000000000
0,578000000000000
0,602000000000000
0,602000000000000
0,617000000000000
0,625000000000000
0,617000000000000
0,602000000000000
0,594000000000000
0,602000000000000
0,594000000000000
0,609000000000000
0,609000000000000
0,602000000000000
0,578000000000000
0,586000000000000
0,562000000000000
0,562000000000000
0,570000000000000
0,555000000000000
0,555000000000000
0,547000000000000
0,547000000000000
0,570000000000000
0,555000000000000
0,594000000000000
0,586000000000000
0,641000000000000
0,625000000000000
0,617000000000000
0,586000000000000
0,594000000000000
0,586000000000000
0,578000000000000
0,578000000000000
0,578000000000000
0,594000000000000
0,578000000000000
0,586000000000000
0,586000000000000
0,594000000000000
0,586000000000000
0,578000000000000
0,586000000000000
0,547000000000000
0,562000000000000
0,562000000000000
0,547000000000000
0,570000000000000
0,570000000000000
0,594000000000000
0,617000000000000
0,641000000000000
0,664000000000000
0,695000000000000
0,695000000000000
0,703000000000000
0,688000000000000
0,680000000000000
0,656000000000000
0,648000000000000
0,625000000000000
0,617000000000000
0,609000000000000
0,602000000000000
0,609000000000000
0,586000000000000
0,586000000000000
0,594000000000000
0,602000000000000
0,602000000000000
0,594000000000000
0,586000000000000
0,578000000000000
0,594000000000000
0,578000000000000
0,594000000000000
0,586000000000000
0,609000000000000
0,625000000000000
0,641000000000000
0,625000000000000
0,617000000000000
0,602000000000000
0,594000000000000
0,602000000000000
0,594000000000000
0,594000000000000
0,602000000000000
0,602000000000000
0,602000000000000
0,609000000000000
0,617000000000000
0,602000000000000
0,617000000000000
0,617000000000000
0,609000000000000
0,633000000000000
0,648000000000000
0,648000000000000
0,641000000000000
0,625000000000000
0,625000000000000
0,609000000000000
0,609000000000000
0,617000000000000
0,609000000000000
0,609000000000000
0,602000000000000
0,609000000000000
0,617000000000000
0,617000000000000
0,625000000000000
0,625000000000000
0,617000000000000
0,625000000000000
0,641000000000000
0,602000000000000
0,617000000000000
0,617000000000000
0,594000000000000
0,602000000000000
0,602000000000000
0,602000000000000
0,609000000000000
0,617000000000000
0,594000000000000
0,617000000000000
0,586000000000000
0,594000000000000
0,586000000000000
0,586000000000000
0,586000000000000
0,586000000000000
0,594000000000000
0,578000000000000
0,594000000000000
0,586000000000000
0,586000000000000
0,578000000000000
0,570000000000000
0,578000000000000
0,555000000000000
0,562000000000000
0,562000000000000
0,570000000000000
0,562000000000000
0,578000000000000
0,578000000000000
0,578000000000000
0,586000000000000
0,570000000000000
0,570000000000000
0,578000000000000
0,547000000000000
0,555000000000000
0,539000000000000
0,539000000000000
0,523000000000000
0,523000000000000
0,531000000000000
0,531000000000000
0,547000000000000
0,547000000000000
0,555000000000000
0,562000000000000
0,555000000000000
0,570000000000000
0,586000000000000
0,586000000000000
0,578000000000000
0,586000000000000
0,594000000000000
0,586000000000000
0,578000000000000
0,586000000000000
0,586000000000000
0,586000000000000
0,562000000000000
0,578000000000000
0,570000000000000
0,570000000000000
0,562000000000000
0,562000000000000
0,555000000000000
0,562000000000000
0,547000000000000
0,547000000000000
0,547000000000000
0,547000000000000
0,531000000000000
0,531000000000000
0,531000000000000
0,531000000000000
0,523000000000000
0,523000000000000
0,516000000000000
0,516000000000000
0,516000000000000
0,523000000000000
0,508000000000000
0,516000000000000
0,523000000000000
0,508000000000000
0,516000000000000
0,516000000000000
0,523000000000000
0,523000000000000
0,516000000000000
0,531000000000000
0,531000000000000
0,547000000000000
0,531000000000000
0,547000000000000
0,547000000000000
0,539000000000000
0,547000000000000
0,547000000000000
0,531000000000000
0,555000000000000
0,539000000000000
0,570000000000000
0,555000000000000
0,562000000000000
0,578000000000000
0,570000000000000
0,570000000000000
0,586000000000000
0,586000000000000
0,586000000000000
0,570000000000000
0,562000000000000
0,570000000000000
0,539000000000000
0,547000000000000
0,562000000000000
0,570000000000000
0,562000000000000
0,578000000000000
0,594000000000000
0,609000000000000
0,617000000000000
0,617000000000000
0,648000000000000
0,609000000000000
0,602000000000000
0,562000000000000
0,594000000000000
0,586000000000000
0,602000000000000
0,594000000000000
0,586000000000000
0,609000000000000
0,586000000000000
0,617000000000000
0,602000000000000
0,602000000000000
0,594000000000000
0,586000000000000
0,609000000000000
0,578000000000000
0,602000000000000
0,594000000000000
0,602000000000000
0,594000000000000
0,602000000000000
0,602000000000000
0,602000000000000
0,617000000000000
0,609000000000000
0,609000000000000
0,586000000000000
0,594000000000000
0,570000000000000
0,586000000000000
0,555000000000000
0,570000000000000
0,578000000000000
0,570000000000000
0,594000000000000
0,586000000000000
0,594000000000000
0,625000000000000
0,609000000000000
0,609000000000000
0,609000000000000
0,609000000000000
0,594000000000000
0,602000000000000
0,594000000000000
0,602000000000000
0,594000000000000
0,586000000000000
0,594000000000000
0,602000000000000
0,594000000000000
0,586000000000000
0,602000000000000
0,570000000000000
0,578000000000000
0,586000000000000
0,562000000000000
0,562000000000000
0,555000000000000
0,570000000000000
0,578000000000000
0,578000000000000
0,586000000000000
0,602000000000000
0,594000000000000
0,578000000000000
0,586000000000000
0,586000000000000
0,617000000000000
0,625000000000000
0,625000000000000
0,625000000000000
0,609000000000000
0,586000000000000
0,578000000000000
0,578000000000000
0,555000000000000
0,562000000000000
0,570000000000000
0,555000000000000
0,570000000000000
0,547000000000000
0,562000000000000
0,562000000000000
0,562000000000000
0,555000000000000
0,555000000000000
0,562000000000000
0,570000000000000
0,555000000000000
0,562000000000000
0,555000000000000
0,562000000000000
0,547000000000000
0,570000000000000
0,555000000000000
0,555000000000000
0,562000000000000
0,547000000000000
0,570000000000000
0,562000000000000
0,562000000000000
0,570000000000000
0,547000000000000
0,562000000000000
0,555000000000000
0,562000000000000
0,578000000000000
0,562000000000000
0,562000000000000
0,562000000000000
0,586000000000000
0,570000000000000
0,586000000000000
0,586000000000000
0,594000000000000
0,617000000000000
0,586000000000000
0,602000000000000
0,594000000000000
0,609000000000000
0,602000000000000
0,609000000000000
0,594000000000000
0,602000000000000
0,609000000000000
0,586000000000000
0,586000000000000
0,570000000000000
0,578000000000000
0,570000000000000
0,562000000000000
0,570000000000000
0,539000000000000
0,562000000000000
0,555000000000000
0,562000000000000
0,547000000000000
0,562000000000000
0,547000000000000
0,539000000000000
0,539000000000000
0,547000000000000
0,539000000000000
0,547000000000000
0,547000000000000
0,555000000000000
0,547000000000000
0,570000000000000
0,570000000000000
0,555000000000000
0,555000000000000
0,555000000000000
0,539000000000000
0,547000000000000
0,555000000000000
0,570000000000000
0,555000000000000
0,578000000000000
0,578000000000000
0,562000000000000
0,594000000000000
0,562000000000000
0,562000000000000
0,547000000000000
0,547000000000000
0,539000000000000
0,523000000000000
0,539000000000000
0,547000000000000
0,547000000000000
0,555000000000000
0,555000000000000
0,570000000000000
0,570000000000000
0,578000000000000
0,570000000000000
0,586000000000000
0,562000000000000
0,562000000000000
0,578000000000000
0,562000000000000
0,555000000000000
0,570000000000000
0,562000000000000
0,562000000000000
0,555000000000000
0,555000000000000
0,547000000000000
0,547000000000000
0,539000000000000
0,539000000000000
0,539000000000000
0,547000000000000
0,555000000000000
0,562000000000000
0,555000000000000
0,555000000000000
0,570000000000000
0,570000000000000
0,562000000000000
0,562000000000000
0,570000000000000
0,555000000000000
0,570000000000000
0,555000000000000
0,562000000000000
0,570000000000000
0,562000000000000
0,555000000000000
0,562000000000000
0,562000000000000
0,562000000000000
0,555000000000000
0,570000000000000
0,562000000000000
0,562000000000000
0,570000000000000
0,547000000000000
0,570000000000000
0,555000000000000
0,555000000000000
0,586000000000000
0,562000000000000
0,570000000000000
0,555000000000000
0,555000000000000
0,547000000000000
0,555000000000000
0,555000000000000
0,555000000000000
0,547000000000000
0,547000000000000
0,547000000000000
0,547000000000000
0,547000000000000
0,539000000000000
0,531000000000000
0,547000000000000
0,531000000000000
0,539000000000000
0,547000000000000
0,531000000000000
0,547000000000000
0,547000000000000
0,547000000000000
0,555000000000000
0,539000000000000
0,539000000000000
0,539000000000000
0,547000000000000
0,539000000000000
0,539000000000000
0,539000000000000
0,539000000000000
0,539000000000000
0,531000000000000
0,531000000000000
0,547000000000000
0,523000000000000
0,531000000000000
0,539000000000000
0,523000000000000
0,539000000000000
0,523000000000000
0,531000000000000
0,539000000000000
0,531000000000000
0,531000000000000
0,539000000000000
0,523000000000000
0,547000000000000
0,508000000000000
0,531000000000000
0,539000000000000
0,523000000000000
0,539000000000000
0,547000000000000
0,516000000000000
0,547000000000000
0,539000000000000
0,562000000000000
0,531000000000000
0,562000000000000
0,531000000000000
0,531000000000000
0,555000000000000
0,539000000000000
0,547000000000000
0,547000000000000
0,547000000000000
0,547000000000000
0,539000000000000
0,547000000000000
0,531000000000000
0,531000000000000
0,531000000000000
0,531000000000000
0,531000000000000
0,523000000000000
0,523000000000000
0,531000000000000
0,516000000000000
0,516000000000000
0,531000000000000
0,500000000000000
0,508000000000000
0,508000000000000
0,484000000000000
0,492000000000000
0,492000000000000
0,492000000000000
0,492000000000000
0,484000000000000
0,500000000000000
0,492000000000000
0,492000000000000
0,492000000000000
0,500000000000000
0,492000000000000
0,500000000000000
0,508000000000000
0,516000000000000
0,508000000000000
0,508000000000000
0,523000000000000
0,516000000000000
0,523000000000000
0,539000000000000
0,516000000000000
0,523000000000000
0,516000000000000
0,516000000000000
0,531000000000000
0,508000000000000
0,516000000000000
0,523000000000000
0,508000000000000
0,516000000000000
0,531000000000000
0,508000000000000
0,523000000000000
0,516000000000000
0,531000000000000
0,531000000000000
0,523000000000000
0,531000000000000
0,531000000000000
0,539000000000000
0,539000000000000
0,531000000000000
0,555000000000000
0,547000000000000
0,539000000000000
0,555000000000000
0,539000000000000
0,547000000000000
0,547000000000000
0,555000000000000
0,539000000000000
0,547000000000000
0,562000000000000
0,547000000000000
0,547000000000000
0,555000000000000
0,539000000000000
0,555000000000000
0,531000000000000
0,539000000000000
0,555000000000000
0,523000000000000
0,539000000000000
0,539000000000000
0,539000000000000
0,547000000000000
0,539000000000000
0,547000000000000
0,531000000000000
0,531000000000000
0,547000000000000
0,516000000000000
0,531000000000000
0,523000000000000
0,531000000000000
0,531000000000000
0,516000000000000
0,523000000000000
0,508000000000000
0,523000000000000
0,516000000000000
0,516000000000000
0,531000000000000
0,516000000000000
0,523000000000000
0,531000000000000
0,508000000000000
0,531000000000000
0,523000000000000
0,531000000000000
0,523000000000000
0,531000000000000
0,531000000000000
0,539000000000000
0,523000000000000
0,523000000000000
0,531000000000000
0,523000000000000
0,523000000000000
0,516000000000000
0,523000000000000
0,531000000000000
0,516000000000000
0,523000000000000
0,523000000000000
0,531000000000000
0,531000000000000
0,523000000000000
0,539000000000000
0,531000000000000
0,531000000000000
0,531000000000000
0,531000000000000
0,539000000000000
0,516000000000000
0,523000000000000
0,531000000000000
0,523000000000000
0,531000000000000
0,523000000000000
0,531000000000000
0,531000000000000
0,516000000000000
0,539000000000000
0,531000000000000
0,531000000000000
0,523000000000000
0,531000000000000
0,531000000000000
0,531000000000000
0,516000000000000
0,531000000000000
0,523000000000000
0,516000000000000
0,531000000000000
0,516000000000000
0,523000000000000
0,531000000000000
0,516000000000000
0,523000000000000
0,508000000000000
0,539000000000000
0,516000000000000
0,523000000000000
0,523000000000000
0,516000000000000
0,523000000000000
0,523000000000000
0,508000000000000
0,516000000000000
0,516000000000000
0,516000000000000
0,508000000000000
0,508000000000000
0,516000000000000
0,523000000000000
0,500000000000000
0,523000000000000
0,508000000000000
0,516000000000000
0,516000000000000
0,500000000000000
0,516000000000000
0,523000000000000
0,508000000000000
0,516000000000000
0,500000000000000
0,508000000000000
0,508000000000000
0,500000000000000
0,516000000000000
0,500000000000000
0,508000000000000
0,508000000000000
0,500000000000000
0,516000000000000
0,508000000000000
0,500000000000000
0,508000000000000
0,523000000000000
0,492000000000000
0,516000000000000
0,500000000000000
0,508000000000000
0,516000000000000
0,508000000000000
0,516000000000000
0,508000000000000
0,508000000000000
0,500000000000000
0,508000000000000
0,516000000000000
0,500000000000000
0,500000000000000
0,516000000000000
0,500000000000000
0,500000000000000
0,484000000000000
0,516000000000000
0,500000000000000
0,516000000000000
0,484000000000000
0,508000000000000
0,500000000000000
0,500000000000000
0,500000000000000
0,492000000000000
0,500000000000000
0,500000000000000
0,492000000000000
0,500000000000000
0,500000000000000
0,492000000000000
0,508000000000000
0,484000000000000
0,500000000000000
0,492000000000000
0,492000000000000
0,500000000000000
0,500000000000000
0,492000000000000
0,500000000000000
0,508000000000000
0,492000000000000
0,508000000000000
0,500000000000000
0,500000000000000
0,508000000000000
0,484000000000000
0,516000000000000
0,508000000000000
0,500000000000000
0,508000000000000
0,516000000000000
0,516000000000000
0,516000000000000
0,508000000000000
0,516000000000000
0,516000000000000
0,508000000000000
0,508000000000000
0,492000000000000
0,500000000000000
0,500000000000000
0,484000000000000
0,500000000000000
0,484000000000000
0,500000000000000
0,492000000000000
0,492000000000000
0,484000000000000
0,508000000000000
0,477000000000000
0,500000000000000
0,500000000000000
0,484000000000000
0,500000000000000
0,492000000000000
0,492000000000000
0,492000000000000
0,492000000000000
0,484000000000000
0,500000000000000
0,484000000000000
0,500000000000000
0,492000000000000
0,484000000000000
0,500000000000000
0,500000000000000
0,492000000000000
0,492000000000000
0,492000000000000
0,492000000000000
0,500000000000000
0,484000000000000
0,484000000000000
0,516000000000000
0,477000000000000
0,484000000000000
0,508000000000000
0,500000000000000
0,492000000000000
0,492000000000000
0,500000000000000
0,500000000000000
0,500000000000000
0,492000000000000
0,508000000000000
0,500000000000000
0,508000000000000
0,492000000000000
0,508000000000000
0,508000000000000
0,484000000000000
0,500000000000000
0,500000000000000
0,484000000000000
0,500000000000000
0,492000000000000
0,492000000000000
0,508000000000000
0,492000000000000
0,500000000000000
0,500000000000000
0,500000000000000
0,508000000000000
0,508000000000000
0,516000000000000
0,523000000000000
0,516000000000000
0,516000000000000
0,523000000000000
0,516000000000000
0,508000000000000
0,523000000000000
0,516000000000000
0,508000000000000
0,523000000000000
0,484000000000000
0,508000000000000
0,484000000000000
0,500000000000000
0,500000000000000
0,492000000000000
0,492000000000000
0,500000000000000
0,492000000000000
0,508000000000000
0,492000000000000
0,508000000000000
0,492000000000000
0,516000000000000
0,500000000000000
0,500000000000000
0,508000000000000
0,508000000000000
0,484000000000000
0,516000000000000
0,500000000000000
0,500000000000000
0,500000000000000
0,492000000000000
0,500000000000000
0,500000000000000
0,492000000000000
0,508000000000000
0,508000000000000
0,492000000000000
0,500000000000000
0,516000000000000
0,492000000000000
0,508000000000000
0,492000000000000
0,500000000000000
0,508000000000000
0,492000000000000
0,500000000000000
0,500000000000000
0,492000000000000
0,500000000000000
0,484000000000000
0,508000000000000
0,500000000000000
0,484000000000000
0,500000000000000
0,500000000000000
0,500000000000000
0,500000000000000
0,508000000000000
0,492000000000000
0,523000000000000
0,484000000000000
0,500000000000000
0,500000000000000
0,500000000000000
0,508000000000000
0,500000000000000
0,500000000000000
0,508000000000000
0,516000000000000
0,516000000000000
0,516000000000000
0,492000000000000
0,500000000000000
0,516000000000000
0,500000000000000
0,516000000000000
0,500000000000000
0,523000000000000
0,516000000000000
0,508000000000000
0,508000000000000
0,508000000000000
0,508000000000000
0,500000000000000
0,500000000000000
0,500000000000000
0,508000000000000
0,484000000000000
0,500000000000000
0,500000000000000
0,492000000000000
0,500000000000000
0,484000000000000
0,500000000000000
0,500000000000000
0,484000000000000
0,492000000000000
0,500000000000000
0,492000000000000
0,484000000000000
0,508000000000000
0,484000000000000
0,500000000000000
0,492000000000000
0,492000000000000
0,500000000000000
0,500000000000000
0,492000000000000
0,492000000000000
0,492000000000000
0,500000000000000
0,500000000000000
0,492000000000000
0,500000000000000
0,484000000000000
0,500000000000000
0,500000000000000
0,477000000000000
0,500000000000000
0,484000000000000
0,492000000000000
0,484000000000000
0,500000000000000
0,484000000000000
0,500000000000000
0,477000000000000
0,484000000000000
0,492000000000000
0,477000000000000
0,492000000000000
0,484000000000000
0,492000000000000
0,484000000000000
0,492000000000000
0,484000000000000
0,500000000000000
0,477000000000000
0,492000000000000
0,492000000000000
0,477000000000000
0,484000000000000
0,492000000000000
0,477000000000000
0,484000000000000
0,492000000000000
0,469000000000000
0,492000000000000
0,484000000000000
0,492000000000000
0,484000000000000
0,484000000000000
0,500000000000000
0,492000000000000
0,484000000000000
0,492000000000000
0,500000000000000
0,492000000000000
0,492000000000000
0,492000000000000
0,492000000000000
0,500000000000000
0,492000000000000
0,500000000000000
0,500000000000000
0,492000000000000
0,484000000000000
0,500000000000000
0,484000000000000
0,492000000000000
0,492000000000000
0,492000000000000
0,492000000000000
0,492000000000000
0,500000000000000
0,492000000000000
0,500000000000000
0,508000000000000
0,508000000000000
0,516000000000000
0,508000000000000
0,500000000000000
0,508000000000000
0,516000000000000
0,492000000000000
0,508000000000000
0,500000000000000
0,508000000000000
0,508000000000000
0,484000000000000
0,500000000000000
0,484000000000000
0,484000000000000
0,484000000000000
0,500000000000000
0,469000000000000
0,500000000000000
0,492000000000000
0,477000000000000
0,492000000000000
0,484000000000000
0,500000000000000
0,484000000000000
0,500000000000000
0,508000000000000
0,508000000000000
0,508000000000000
0,531000000000000
0,500000000000000
0,508000000000000
0,531000000000000
0,500000000000000
0,516000000000000
0,500000000000000
0,508000000000000
0,500000000000000
0,492000000000000
0,500000000000000
0,492000000000000
0,484000000000000
0,484000000000000
0,500000000000000
0,477000000000000
0,484000000000000
0,492000000000000
0,492000000000000
0,492000000000000
0,492000000000000
0,492000000000000
0,508000000000000
0,484000000000000
0,484000000000000
0,500000000000000
0,492000000000000
0,492000000000000
0,492000000000000
0,500000000000000
0,500000000000000
0,484000000000000
0,500000000000000
0,500000000000000
0,492000000000000
0,500000000000000
0,500000000000000
0,492000000000000
0,508000000000000
0,477000000000000
0,508000000000000
0,500000000000000
0,492000000000000
0,500000000000000
0,500000000000000
0,500000000000000
0,508000000000000
0,500000000000000
0,492000000000000
0,516000000000000
0,500000000000000
0,500000000000000
0,508000000000000
0,492000000000000
0,508000000000000
0,500000000000000
0,508000000000000
0,500000000000000
0,516000000000000
0,508000000000000
0,516000000000000
0,500000000000000
0,516000000000000
0,516000000000000
0,500000000000000
0,516000000000000
0,500000000000000
0,516000000000000
0,508000000000000
0,508000000000000
0,523000000000000
0,516000000000000
0,508000000000000
0,516000000000000
0,508000000000000
0,516000000000000
0,508000000000000
0,508000000000000
0,523000000000000
0,500000000000000
0,523000000000000
0,508000000000000
0,500000000000000
0,508000000000000
0,516000000000000
0,492000000000000
0,523000000000000
0,508000000000000
0,516000000000000
0,516000000000000
0,508000000000000
0,523000000000000
0,516000000000000
0,516000000000000
0,516000000000000
0,508000000000000
0,516000000000000
0,508000000000000
0,508000000000000
0,508000000000000
0,500000000000000
0,500000000000000
0,500000000000000
0,484000000000000
0,484000000000000
0,500000000000000
0,484000000000000
0,492000000000000
0,492000000000000
0,484000000000000
0,500000000000000
0,500000000000000
0,492000000000000
0,508000000000000
0,508000000000000
0,500000000000000
0,508000000000000
0,492000000000000
0,508000000000000
0,508000000000000
0,508000000000000
0,508000000000000
0,500000000000000
0,523000000000000
0,508000000000000
0,508000000000000
0,508000000000000
0,508000000000000
0,508000000000000
0,516000000000000
0,500000000000000
0,516000000000000
0,516000000000000
0,492000000000000
0,516000000000000
0,516000000000000
0,516000000000000
0,516000000000000
0,500000000000000
0,523000000000000
0,508000000000000
0,508000000000000
0,508000000000000
0,508000000000000
0,508000000000000
0,516000000000000
0,492000000000000
0,516000000000000
0,516000000000000
0,508000000000000
0,508000000000000
0,516000000000000
0,531000000000000
0,508000000000000
0,523000000000000
0,531000000000000
0,523000000000000
0,539000000000000
0,523000000000000
0,516000000000000
0,531000000000000
0,523000000000000
0,516000000000000
0,523000000000000
0,508000000000000
0,523000000000000
0,508000000000000
0,508000000000000
0,516000000000000
0,508000000000000
0,500000000000000
0,516000000000000
0,492000000000000
0,508000000000000
0,508000000000000
0,492000000000000
0,508000000000000
0,492000000000000
0,508000000000000
0,508000000000000
0,500000000000000
0,500000000000000
0,508000000000000
0,500000000000000
0,492000000000000
0,508000000000000
0,492000000000000
0,492000000000000
0,500000000000000
0,500000000000000
0,492000000000000
0,500000000000000
0,500000000000000
0,492000000000000
0,492000000000000
0,492000000000000
0,508000000000000
0,492000000000000
0,500000000000000
0,500000000000000
0,508000000000000
0,516000000000000
0,492000000000000
0,516000000000000
0,500000000000000
0,516000000000000
0,492000000000000
0,500000000000000
0,508000000000000
0,508000000000000
0,492000000000000
0,492000000000000
0,508000000000000
0,484000000000000
0,508000000000000
0,477000000000000
0,500000000000000
0,500000000000000
0,492000000000000
0,500000000000000
0,492000000000000
0,508000000000000
0,492000000000000
0,500000000000000
0,477000000000000
0,500000000000000
0,492000000000000
0,492000000000000
0,500000000000000
0,500000000000000
0,508000000000000
0,492000000000000
0,508000000000000
0,516000000000000
0,492000000000000
0,508000000000000
0,516000000000000
0,500000000000000
0,516000000000000
0,508000000000000
0,500000000000000
0,516000000000000
0,492000000000000
0,508000000000000
0,516000000000000
0,500000000000000
0,508000000000000
0,508000000000000
0,516000000000000
0,508000000000000
0,500000000000000
0,516000000000000
0,508000000000000
0,500000000000000
0,516000000000000
0,508000000000000
0,516000000000000
0,516000000000000
0,508000000000000
0,508000000000000
0,523000000000000
0,500000000000000
0,508000000000000
0,508000000000000
0,516000000000000
0,516000000000000
0,500000000000000
0,516000000000000
0,516000000000000
0,508000000000000
0,516000000000000
0,500000000000000
0,508000000000000
0,516000000000000
0,492000000000000
0,516000000000000
0,508000000000000
0,508000000000000
0,500000000000000
0,500000000000000
0,508000000000000
0,516000000000000
0,492000000000000
0,500000000000000
0,500000000000000
0,492000000000000
0,500000000000000
0,516000000000000
0,484000000000000
0,500000000000000
0,492000000000000
0,508000000000000
0,508000000000000
0,500000000000000
0,508000000000000
0,508000000000000
0,500000000000000
0,516000000000000
0,500000000000000
0,508000000000000
0,508000000000000
0,492000000000000
0,508000000000000
0,508000000000000
0,492000000000000
0,500000000000000
0,500000000000000
0,500000000000000
0,516000000000000
0,500000000000000
0,516000000000000
0,500000000000000
0,508000000000000
0,500000000000000
0,508000000000000
0,508000000000000
0,508000000000000
0,492000000000000
0,508000000000000
0,516000000000000
0,492000000000000
0,508000000000000
0,508000000000000
0,508000000000000
0,508000000000000
0,492000000000000
0,508000000000000
0,508000000000000
0,500000000000000
0,500000000000000
0,508000000000000
0,508000000000000
0,516000000000000
0,500000000000000
0,508000000000000
0,523000000000000
0,500000000000000
0,516000000000000
0,508000000000000
0,508000000000000
0,516000000000000
0,492000000000000
0,523000000000000
0,516000000000000
0,516000000000000
0,523000000000000
0,523000000000000
0,523000000000000
0,523000000000000
0,516000000000000
0,516000000000000
0,523000000000000
0,508000000000000
0,523000000000000
0,508000000000000
0,523000000000000
0,531000000000000
0,508000000000000
0,516000000000000
0,531000000000000
0,617000000000000
0,609000000000000
0,586000000000000
0,594000000000000
0,539000000000000
0,555000000000000
0,531000000000000
0,523000000000000
0,547000000000000
0,531000000000000
0,539000000000000
0,539000000000000
0,539000000000000
0,539000000000000
0,539000000000000
0,547000000000000
0,539000000000000
0,531000000000000
0,531000000000000
0,508000000000000
0,516000000000000
0,500000000000000
0,508000000000000
0,523000000000000
0,492000000000000
0,500000000000000
0,508000000000000
0,484000000000000
0,508000000000000
0,500000000000000
0,492000000000000
0,500000000000000
0,492000000000000
0,500000000000000
0,508000000000000
0,477000000000000
0,508000000000000
0,508000000000000
0,484000000000000
0,500000000000000
0,500000000000000
0,492000000000000
0,516000000000000
0,492000000000000
0,508000000000000
0,508000000000000
0,500000000000000
0,500000000000000
0,508000000000000
0,500000000000000
0,500000000000000
0,492000000000000
0,500000000000000
0,508000000000000
0,484000000000000
0,500000000000000
0,492000000000000
0,500000000000000
0,492000000000000
0,492000000000000
0,484000000000000
0,492000000000000
0,500000000000000
0,484000000000000
0,500000000000000
0,484000000000000
0,508000000000000
0,492000000000000
0,492000000000000
0,492000000000000
0,531000000000000
0,445000000000000
0,492000000000000
0,484000000000000
0,492000000000000
0,484000000000000
0,477000000000000
0,492000000000000
0,477000000000000
0,477000000000000
0,477000000000000
0,484000000000000
0,477000000000000
0,477000000000000
0,469000000000000
0,484000000000000
0,477000000000000
0,477000000000000
0,469000000000000
0,484000000000000
0,477000000000000
0,477000000000000
0,477000000000000
0,469000000000000
0,477000000000000
0,484000000000000
0,469000000000000
0,484000000000000
0,484000000000000
0,469000000000000
0,484000000000000
0,484000000000000
0,484000000000000
0,469000000000000
0,477000000000000
0,484000000000000
0,484000000000000
0,469000000000000
0,492000000000000
0,484000000000000
0,453000000000000
0,484000000000000
0,477000000000000
0,477000000000000
0,469000000000000
0,477000000000000
0,461000000000000
0,484000000000000
0,469000000000000
0,469000000000000
0,484000000000000
0,461000000000000
0,469000000000000
0,484000000000000
0,461000000000000
0,477000000000000
0,477000000000000
0,461000000000000
0,484000000000000
0,469000000000000
0,469000000000000
0,484000000000000
0,469000000000000
0,469000000000000
0,477000000000000
0,469000000000000
0,477000000000000
0,477000000000000
0,469000000000000
0,477000000000000
0,477000000000000
0,461000000000000
0,477000000000000
0,484000000000000
0,461000000000000
0,477000000000000
0,469000000000000
0,469000000000000
0,477000000000000
0,477000000000000
0,469000000000000
0,484000000000000
0,477000000000000
0,477000000000000
0,477000000000000
0,484000000000000
0,477000000000000
0,477000000000000
0,469000000000000
0,477000000000000
0,477000000000000
0,469000000000000
0,477000000000000
0,477000000000000
0,469000000000000
0,469000000000000
0,492000000000000
0,461000000000000
0,492000000000000
0,469000000000000
0,477000000000000
0,477000000000000
0,484000000000000
0,469000000000000
0,492000000000000
0,469000000000000
0,477000000000000
0,492000000000000
0,477000000000000
0,484000000000000
0,477000000000000
0,484000000000000
0,477000000000000
0,500000000000000
0,477000000000000
0,500000000000000
0,477000000000000
0,484000000000000
0,500000000000000
0,469000000000000
0,391000000000000
0,586000000000000
0,508000000000000
0,500000000000000
0,492000000000000
0,492000000000000
0,500000000000000
0,492000000000000
0,492000000000000
0,500000000000000
0,484000000000000
0,492000000000000
0,500000000000000
0,484000000000000
0,492000000000000
0,492000000000000
0,492000000000000
0,508000000000000
0,484000000000000
0,508000000000000
0,508000000000000
0,492000000000000
0,500000000000000
0,500000000000000
0,492000000000000
0,508000000000000
0,492000000000000
0,508000000000000
0,508000000000000
0,484000000000000
0,500000000000000
0,500000000000000
0,484000000000000
0,492000000000000
0,484000000000000
0,484000000000000
0,492000000000000
0,484000000000000
0,477000000000000
0,492000000000000
0,484000000000000
0,484000000000000
0,492000000000000
0,477000000000000
0,484000000000000
0,492000000000000
0,484000000000000
0,492000000000000
0,500000000000000
0,492000000000000
0,500000000000000
0,492000000000000
0,508000000000000
0,516000000000000
0,500000000000000
0,516000000000000
0,500000000000000
0,523000000000000
0,523000000000000
0,523000000000000
0,531000000000000
0,500000000000000
0,492000000000000
0,492000000000000
0,492000000000000
0,492000000000000
0,484000000000000
0,484000000000000
0,492000000000000
0,492000000000000
0,484000000000000
0,492000000000000
0,492000000000000
0,492000000000000
0,484000000000000
0,492000000000000
0,484000000000000
0,492000000000000
0,477000000000000
0,484000000000000
0,500000000000000
0,469000000000000
0,477000000000000
0,477000000000000
0,477000000000000
0,469000000000000
0,484000000000000
0,461000000000000
0,477000000000000
0,461000000000000
0,461000000000000
0,469000000000000
0,469000000000000
0,461000000000000
0,477000000000000
0,469000000000000
0,477000000000000
0,484000000000000
0,477000000000000
0,484000000000000
0,492000000000000
0,484000000000000
0,500000000000000
0,492000000000000
0,484000000000000
0,500000000000000
0,492000000000000
0,500000000000000
0,500000000000000
0,500000000000000
0,531000000000000
0,516000000000000
0,523000000000000
0,523000000000000
0,516000000000000
0,516000000000000
0,508000000000000
0,508000000000000
0,508000000000000
0,508000000000000
0,500000000000000
0,508000000000000
0,500000000000000
0,508000000000000
0,523000000000000
0,484000000000000
0,508000000000000
0,500000000000000
0,508000000000000
0,508000000000000
0,508000000000000
0,523000000000000
0,516000000000000
0,500000000000000
0,516000000000000
0,516000000000000
0,492000000000000
0,508000000000000
0,492000000000000
0,516000000000000
0,508000000000000
0,523000000000000
0,516000000000000
0,508000000000000
0,516000000000000
0,516000000000000
0,508000000000000
0,508000000000000
0,508000000000000
0,508000000000000
0,500000000000000
0,516000000000000
0,500000000000000
0,492000000000000
0,492000000000000
0,500000000000000
0,492000000000000
0,484000000000000
0,492000000000000
0,484000000000000
0,484000000000000
0,477000000000000
0,500000000000000
0,469000000000000
0,484000000000000
0,469000000000000
0,477000000000000
0,469000000000000
0,469000000000000
0,461000000000000
0,477000000000000
0,469000000000000
0,469000000000000
0,484000000000000
0,461000000000000
0,484000000000000
0,484000000000000
0,469000000000000
0,477000000000000
0,484000000000000
0,461000000000000
0,477000000000000
0,469000000000000
0,477000000000000
0,477000000000000
0,469000000000000
0,484000000000000
0,484000000000000
0,484000000000000
0,492000000000000
0,516000000000000
0,508000000000000
0,516000000000000
0,516000000000000
0,516000000000000
0,516000000000000
0,516000000000000
0,523000000000000
0,523000000000000
0,508000000000000
0,531000000000000
0,531000000000000
0,539000000000000
0,539000000000000
0,531000000000000
0,539000000000000
0,539000000000000
0,555000000000000
0,547000000000000
0,539000000000000
0,570000000000000
0,562000000000000
0,570000000000000
0,578000000000000
0,570000000000000
0,578000000000000
0,570000000000000
0,578000000000000
0,570000000000000
0,547000000000000
0,547000000000000
0,531000000000000
0,539000000000000
0,531000000000000
0,547000000000000
0,562000000000000
0,547000000000000
0,547000000000000
0,531000000000000
0,531000000000000
0,523000000000000
0,500000000000000
0,523000000000000
0,500000000000000
0,500000000000000
0,508000000000000
0,484000000000000
0,484000000000000
0,500000000000000
0,477000000000000
0,492000000000000
0,508000000000000
0,492000000000000
0,492000000000000
0,492000000000000
0,500000000000000
0,492000000000000
0,484000000000000
0,492000000000000
0,477000000000000
0,484000000000000
0,484000000000000
0,500000000000000
0,469000000000000
0,492000000000000
0,484000000000000
0,484000000000000
0,492000000000000
0,477000000000000
0,500000000000000
0,484000000000000
0,492000000000000
0,484000000000000
0,492000000000000
0,484000000000000
0,492000000000000
0,484000000000000
0,492000000000000
0,484000000000000
0,492000000000000
0,484000000000000
0,500000000000000
0,477000000000000
0,492000000000000
0,492000000000000
0,492000000000000
0,500000000000000
0,484000000000000
0,492000000000000
0,492000000000000
0,492000000000000
0,492000000000000
0,492000000000000
0,477000000000000
0,492000000000000
0,492000000000000
0,484000000000000
0,500000000000000
0,484000000000000
0,484000000000000
0,492000000000000
0,492000000000000
0,500000000000000
0,492000000000000
0,477000000000000
0,492000000000000
0,500000000000000
0,484000000000000
0,508000000000000
0,500000000000000
0,500000000000000
0,516000000000000
0,508000000000000
0,508000000000000
0,523000000000000
0,508000000000000
0,508000000000000
0,508000000000000
0,516000000000000
0,500000000000000
0,492000000000000
0,508000000000000
0,508000000000000
0,500000000000000
0,516000000000000
0,516000000000000
0,531000000000000
0,539000000000000
0,516000000000000
0,523000000000000
0,531000000000000
0,516000000000000
0,531000000000000
0,516000000000000
0,523000000000000
0,516000000000000
0,508000000000000
0,523000000000000
0,516000000000000
0,516000000000000
0,523000000000000
0,516000000000000
0,523000000000000
0,539000000000000
0,516000000000000
0,516000000000000
0,523000000000000
0,508000000000000
0,523000000000000
0,500000000000000
0,516000000000000
0,516000000000000
0,523000000000000
0,531000000000000
0,516000000000000
0,523000000000000
0,539000000000000
0,508000000000000
0,516000000000000
0,516000000000000
0,516000000000000
0,523000000000000
0,516000000000000
0,531000000000000
0,516000000000000
0,531000000000000
0,516000000000000
0,516000000000000
0,516000000000000
0,523000000000000
0,500000000000000
0,516000000000000
0,500000000000000
0,500000000000000
0,516000000000000
0,492000000000000
0,508000000000000
0,492000000000000
0,516000000000000
0,508000000000000
0,516000000000000
0,539000000000000
0,523000000000000
0,531000000000000
0,547000000000000
0,539000000000000
0,547000000000000
0,539000000000000
0,555000000000000
0,555000000000000
0,539000000000000
0,555000000000000
0,555000000000000
0,531000000000000
0,547000000000000
0,555000000000000
0,555000000000000
0,531000000000000
0,539000000000000
0,547000000000000
0,516000000000000
0,539000000000000
0,539000000000000
0,531000000000000
0,547000000000000
0,539000000000000
0,547000000000000
0,547000000000000
0,555000000000000
0,539000000000000
0,555000000000000
0,555000000000000
0,555000000000000
0,555000000000000
0,562000000000000
0,555000000000000
0,555000000000000
0,562000000000000
0,555000000000000
0,555000000000000
0,547000000000000
0,570000000000000
0,555000000000000
0,555000000000000
0,570000000000000
0,562000000000000
0,570000000000000
0,562000000000000
0,578000000000000
0,570000000000000
0,562000000000000
0,562000000000000
0,562000000000000
0,547000000000000
0,555000000000000
0,562000000000000
0,555000000000000
0,555000000000000
0,570000000000000
0,555000000000000
0,570000000000000
0,570000000000000
0,570000000000000
0,578000000000000
0,547000000000000
0,562000000000000
0,531000000000000
0,539000000000000
0,539000000000000
0,523000000000000
0,539000000000000
0,516000000000000
0,531000000000000
0,516000000000000
0,516000000000000
0,516000000000000
0,516000000000000
0,516000000000000
0,531000000000000
0,508000000000000
0,523000000000000
0,531000000000000
0,516000000000000
0,523000000000000
0,523000000000000
0,531000000000000
0,523000000000000
0,508000000000000
0,523000000000000
0,531000000000000
0,508000000000000
0,531000000000000
0,500000000000000
0,523000000000000
0,508000000000000
0,500000000000000
0,508000000000000
0,500000000000000
0,508000000000000
0,492000000000000
0,500000000000000
0,500000000000000
0,508000000000000
0,500000000000000
0,500000000000000
0,516000000000000
0,500000000000000
0,516000000000000
0,492000000000000
0,508000000000000
0,516000000000000
0,500000000000000
0,508000000000000
0,516000000000000
0,508000000000000
0,508000000000000
0,500000000000000
0,516000000000000
0,516000000000000
0,500000000000000
0,500000000000000
0,508000000000000
0,516000000000000
0,500000000000000
0,500000000000000
0,508000000000000
0,500000000000000
0,508000000000000
0,508000000000000
0,508000000000000
0,516000000000000
0,523000000000000
0,508000000000000
0,516000000000000
0,516000000000000
0,523000000000000
0,516000000000000
0,508000000000000
0,523000000000000
0,523000000000000
0,523000000000000
0,523000000000000
0,531000000000000
0,516000000000000
0,531000000000000
0,516000000000000
0,523000000000000
0,531000000000000
0,523000000000000
0,531000000000000
0,516000000000000
0,547000000000000
0,531000000000000
0,531000000000000
0,539000000000000
0,539000000000000
0,523000000000000
0,531000000000000
0,523000000000000
0,539000000000000
0,531000000000000
0,547000000000000
0,547000000000000
0,547000000000000
0,555000000000000
0,539000000000000
0,547000000000000
0,547000000000000
0,539000000000000
0,539000000000000
0,547000000000000
0,539000000000000
0,570000000000000
0,523000000000000
0,555000000000000
0,547000000000000
0,555000000000000
0,562000000000000
0,531000000000000
0,555000000000000
0,547000000000000
0,555000000000000
0,555000000000000
0,562000000000000
0,562000000000000
0,547000000000000
0,570000000000000
0,562000000000000
0,547000000000000
0,555000000000000
0,562000000000000
0,562000000000000
0,570000000000000
0,586000000000000
0,570000000000000
0,586000000000000
0,570000000000000
0,570000000000000
0,570000000000000
0,555000000000000
0,562000000000000
0,570000000000000
0,555000000000000
0,578000000000000
0,555000000000000
0,570000000000000
0,570000000000000
0,562000000000000
0,570000000000000
0,570000000000000
0,562000000000000
0,555000000000000
0,570000000000000
0,586000000000000
0,562000000000000
0,570000000000000
0,570000000000000
0,578000000000000
0,555000000000000
0,578000000000000
0,578000000000000
0,578000000000000
0,586000000000000
0,570000000000000
0,578000000000000
0,562000000000000
0,539000000000000
0,547000000000000
0,539000000000000
0,523000000000000
0,523000000000000
0,523000000000000
0,523000000000000
0,508000000000000
0,523000000000000
0,523000000000000
0,523000000000000
0,531000000000000
0,531000000000000
0,539000000000000
0,539000000000000
0,523000000000000
0,531000000000000
0,523000000000000
0,523000000000000
0,523000000000000
0,508000000000000
0,523000000000000
0,508000000000000
0,516000000000000
0,508000000000000
0,523000000000000
0,531000000000000
0,523000000000000
0,547000000000000
0,562000000000000
0,539000000000000
0,539000000000000
0,555000000000000
0,547000000000000
0,539000000000000
0,531000000000000
0,555000000000000
0,539000000000000
0,547000000000000
0,539000000000000
0,539000000000000
0,539000000000000
0,555000000000000
0,562000000000000
0,562000000000000
0,562000000000000
0,562000000000000
0,578000000000000
0,570000000000000
0,578000000000000
0,562000000000000
0,562000000000000
0,562000000000000
0,570000000000000
0,555000000000000
0,555000000000000
0,570000000000000
0,547000000000000
0,562000000000000
0,547000000000000
0,562000000000000
0,555000000000000
0,555000000000000
0,555000000000000
0,547000000000000
0,562000000000000
0,555000000000000
0,562000000000000
0,547000000000000
0,539000000000000
0,547000000000000
0,547000000000000
0,570000000000000
0,570000000000000
0,570000000000000
0,578000000000000
0,555000000000000
0,578000000000000
0,578000000000000
0,555000000000000
0,570000000000000
0,562000000000000
0,570000000000000
0,570000000000000
0,578000000000000
0,570000000000000
0,578000000000000
0,570000000000000
0,562000000000000
0,586000000000000
0,555000000000000
0,570000000000000
0,555000000000000
0,570000000000000
0,578000000000000
0,602000000000000
0,617000000000000
0,625000000000000
0,625000000000000
0,617000000000000
0,609000000000000
0,602000000000000
0,562000000000000
0,570000000000000
0,555000000000000
0,555000000000000
0,555000000000000
0,578000000000000
0,578000000000000
0,586000000000000
0,586000000000000
0,594000000000000
0,648000000000000
0,648000000000000
0,641000000000000
0,648000000000000
0,625000000000000
0,625000000000000
0,617000000000000
0,609000000000000
0,586000000000000
0,602000000000000
0,578000000000000
0,602000000000000
0,586000000000000
0,594000000000000
0,570000000000000
0,586000000000000
0,586000000000000
0,578000000000000
0,578000000000000
0,578000000000000
0,578000000000000
0,586000000000000
0,562000000000000
0,586000000000000
0,578000000000000
0,586000000000000
0,570000000000000
0,570000000000000
0,562000000000000
0,562000000000000
0,555000000000000
0,539000000000000
0,547000000000000
0,555000000000000
0,539000000000000
0,539000000000000
0,531000000000000
0,547000000000000
0,539000000000000
0,547000000000000
0,547000000000000
0,547000000000000
0,562000000000000
0,547000000000000
0,555000000000000
0,539000000000000
0,539000000000000
0,539000000000000
0,547000000000000
0,531000000000000
0,539000000000000
0,539000000000000
0,539000000000000
0,531000000000000
0,531000000000000
0,547000000000000
0,531000000000000
0,555000000000000
0,555000000000000
0,555000000000000
0,547000000000000
0,539000000000000
0,547000000000000
0,531000000000000
0,547000000000000
0,555000000000000
0,547000000000000
0,562000000000000
0,570000000000000
0,578000000000000
0,586000000000000
0,570000000000000
0,562000000000000
0,555000000000000
0,562000000000000
0,555000000000000
0,539000000000000
0,547000000000000
0,539000000000000
0,555000000000000
0,523000000000000
0,539000000000000
0,547000000000000
0,539000000000000
0,555000000000000
0,562000000000000
0,570000000000000
0,570000000000000
0,578000000000000
0,586000000000000
0,562000000000000
0,562000000000000
0,578000000000000
0,570000000000000
0,578000000000000
0,547000000000000
0,578000000000000
0,555000000000000
0,562000000000000
0,578000000000000
0,555000000000000
0,570000000000000
0,555000000000000
0,570000000000000
0,555000000000000
0,547000000000000
0,547000000000000
0,547000000000000
0,555000000000000
0,531000000000000
0,555000000000000
0,547000000000000
0,562000000000000
0,547000000000000
0,547000000000000
0,547000000000000
0,547000000000000
0,547000000000000
0,555000000000000
0,531000000000000
0,547000000000000
0,547000000000000
0,539000000000000
0,547000000000000
0,539000000000000
0,547000000000000
0,531000000000000
0,547000000000000
0,531000000000000
0,531000000000000
0,531000000000000
0,523000000000000
0,516000000000000
0,531000000000000
0,531000000000000
0,523000000000000
0,531000000000000
0,516000000000000
0,516000000000000
0,523000000000000
0,516000000000000
0,523000000000000
0,516000000000000
0,531000000000000
0,539000000000000
0,539000000000000
0,570000000000000
0,555000000000000
0,562000000000000
0,562000000000000
0,562000000000000
0,570000000000000
0,570000000000000
0,570000000000000
0,562000000000000
0,570000000000000
0,555000000000000
0,562000000000000
0,555000000000000
0,555000000000000
0,555000000000000
0,555000000000000
0,547000000000000
0,562000000000000
0,555000000000000
0,562000000000000
0,547000000000000
0,547000000000000
0,547000000000000
0,539000000000000
0,547000000000000
0,539000000000000
0,555000000000000
0,555000000000000
0,555000000000000
0,555000000000000
0,562000000000000
0,555000000000000
0,562000000000000
0,562000000000000
0,547000000000000
0,547000000000000
0,555000000000000
0,555000000000000
0,555000000000000
0,570000000000000
0,570000000000000
0,594000000000000
0,578000000000000
0,578000000000000
0,586000000000000
0,562000000000000
0,562000000000000
0,570000000000000
0,570000000000000
0,562000000000000
0,562000000000000
0,570000000000000
0,555000000000000
0,555000000000000
0,562000000000000
0,555000000000000
0,555000000000000
0,555000000000000
0,555000000000000
0,547000000000000
0,562000000000000
0,562000000000000
0,562000000000000
0,555000000000000
0,555000000000000
0,555000000000000
0,555000000000000
0,555000000000000
0,555000000000000
0,555000000000000
0,547000000000000
0,562000000000000
0,562000000000000
0,555000000000000
0,562000000000000
0,555000000000000
0,539000000000000
0,547000000000000
0,547000000000000
0,555000000000000
0,547000000000000
0,539000000000000
0,555000000000000
0,539000000000000
0,555000000000000
0,555000000000000
0,547000000000000
0,547000000000000
0,547000000000000
0,547000000000000
0,555000000000000
0,539000000000000
0,539000000000000
0,531000000000000
0,547000000000000
0,547000000000000
0,523000000000000
0,539000000000000
0,523000000000000
0,539000000000000
0,531000000000000
0,531000000000000
0,539000000000000
0,531000000000000
0,539000000000000
0,531000000000000
0,523000000000000
0,531000000000000
0,531000000000000
0,523000000000000
0,539000000000000
0,516000000000000
0,531000000000000
0,516000000000000
0,531000000000000
0,523000000000000
0,516000000000000
0,523000000000000
0,523000000000000
0,523000000000000
0,523000000000000
0,523000000000000
0,531000000000000
0,531000000000000
0,516000000000000
0,523000000000000
0,523000000000000
0,523000000000000
0,523000000000000
0,516000000000000
0,531000000000000
0,531000000000000
0,516000000000000
0,531000000000000
0,531000000000000
0,523000000000000
0,523000000000000
0,523000000000000
0,531000000000000
0,516000000000000
0,539000000000000
0,547000000000000
0,516000000000000
0,539000000000000
0,531000000000000
0,547000000000000
0,547000000000000
0,547000000000000
0,555000000000000
0,547000000000000
0,555000000000000
0,570000000000000
0,531000000000000
0,555000000000000
0,539000000000000
0,547000000000000
0,539000000000000
0,516000000000000
0,539000000000000
0,508000000000000
0,523000000000000
0,516000000000000
0,508000000000000
0,516000000000000
0,500000000000000
0,406000000000000
0,617000000000000
0,539000000000000
0,531000000000000
0,523000000000000
0,523000000000000
0,523000000000000
0,523000000000000
0,516000000000000
0,523000000000000
0,516000000000000
0,516000000000000
0,523000000000000
0,516000000000000
0,508000000000000
0,508000000000000
0,516000000000000
0,508000000000000
0,500000000000000
0,523000000000000
0,500000000000000
0,516000000000000
0,508000000000000
0,508000000000000
0,516000000000000
0,516000000000000
0,508000000000000
0,523000000000000
0,523000000000000
0,523000000000000
0,523000000000000
0,500000000000000
0,516000000000000
0,531000000000000
0,531000000000000
0,539000000000000
0,523000000000000
0,523000000000000
0,531000000000000
0,516000000000000
0,508000000000000
0,516000000000000
0,516000000000000
0,508000000000000
0,508000000000000
0,508000000000000
0,500000000000000
0,500000000000000
0,500000000000000
0,492000000000000
0,500000000000000
0,500000000000000
0,492000000000000
0,500000000000000
0,516000000000000
0,492000000000000
0,516000000000000
0,492000000000000
0,508000000000000
0,508000000000000
0,500000000000000
0,516000000000000
0,523000000000000
0,523000000000000
0,539000000000000
0,516000000000000
0,531000000000000
0,516000000000000
0,508000000000000
0,516000000000000
0,508000000000000
0,523000000000000
0,531000000000000
0,539000000000000
0,531000000000000
0,531000000000000
0,523000000000000
0,523000000000000
0,523000000000000
0,516000000000000
0,539000000000000
0,516000000000000
0,547000000000000
0,531000000000000
0,539000000000000
0,539000000000000
0,531000000000000
0,539000000000000
0,539000000000000
0,547000000000000
0,562000000000000
0,547000000000000
0,562000000000000
0,547000000000000
0,547000000000000
0,547000000000000
0,523000000000000
0,547000000000000
0,516000000000000
0,539000000000000
0,539000000000000
0,516000000000000
0,531000000000000
0,523000000000000
0,531000000000000
0,539000000000000
0,531000000000000
0,539000000000000
0,531000000000000
0,531000000000000
0,539000000000000
0,531000000000000
0,531000000000000
0,531000000000000
0,539000000000000
0,539000000000000
0,516000000000000
0,555000000000000
0,562000000000000
0,586000000000000
0,602000000000000
0,617000000000000
0,648000000000000
0,617000000000000
0,625000000000000
0,617000000000000
0,633000000000000
0,617000000000000
0,625000000000000
0,602000000000000
0,602000000000000
0,609000000000000
0,609000000000000
0,609000000000000
0,602000000000000
0,633000000000000
0,609000000000000
0,625000000000000
0,609000000000000
0,625000000000000
0,609000000000000
0,633000000000000
0,633000000000000
0,617000000000000
0,625000000000000
0,617000000000000
0,625000000000000
0,617000000000000
0,633000000000000
0,609000000000000
0,625000000000000
0,602000000000000
0,602000000000000
0,602000000000000
0,617000000000000
0,625000000000000
0,617000000000000
0,617000000000000
0,633000000000000
0,633000000000000
0,625000000000000
0,625000000000000
0,617000000000000
0,617000000000000
0,609000000000000
0,625000000000000
0,617000000000000
0,633000000000000
0,633000000000000
0,625000000000000
0,633000000000000
0,625000000000000
0,633000000000000
0,602000000000000
0,617000000000000
0,617000000000000
0,641000000000000
0,633000000000000
0,656000000000000
0,648000000000000
0,656000000000000
0,648000000000000
0,656000000000000
0,641000000000000
0,633000000000000
0,641000000000000
0,656000000000000
0,648000000000000
0,656000000000000
0,664000000000000
0,672000000000000
0,688000000000000
0,688000000000000
0,680000000000000
0,664000000000000
0,695000000000000
0,664000000000000
0,664000000000000
0,656000000000000
0,664000000000000
0,656000000000000
0,664000000000000
0,641000000000000
0,641000000000000
0,617000000000000
0,648000000000000
0,617000000000000
0,633000000000000
0,625000000000000
0,641000000000000
0,633000000000000
0,633000000000000
0,633000000000000
0,625000000000000
0,625000000000000
0,602000000000000
0,641000000000000
0,633000000000000
0,625000000000000
0,578000000000000
0,648000000000000
0,586000000000000
0,602000000000000
0,570000000000000
0,609000000000000
0,602000000000000
0,609000000000000
0,609000000000000
0,594000000000000
0,609000000000000
0,609000000000000
0,625000000000000
0,617000000000000
0,625000000000000
0,625000000000000
0,617000000000000
0,617000000000000
0,602000000000000
0,617000000000000
0,594000000000000
0,609000000000000
0,617000000000000
0,633000000000000
0,625000000000000
0,625000000000000
0,633000000000000
0,617000000000000
0,609000000000000
0,594000000000000
0,594000000000000
0,586000000000000
0,594000000000000
0,602000000000000
0,602000000000000
0,594000000000000
0,594000000000000
0,609000000000000
0,602000000000000
0,609000000000000
0,594000000000000
0,609000000000000
0,602000000000000
0,625000000000000
0,617000000000000
0,625000000000000
0,633000000000000
0,633000000000000
0,617000000000000
0,617000000000000
0,633000000000000
0,625000000000000
0,609000000000000
0,602000000000000
0,617000000000000
0,609000000000000
0,602000000000000
0,617000000000000
0,617000000000000
0,625000000000000
0,625000000000000
0,641000000000000
0,617000000000000
0,641000000000000
0,609000000000000
0,617000000000000
0,609000000000000
0,617000000000000
0,594000000000000
0,609000000000000
0,609000000000000
0,609000000000000
0,625000000000000
0,602000000000000
0,617000000000000
0,609000000000000
0,609000000000000
0,594000000000000
0,602000000000000
0,602000000000000
0,594000000000000
0,609000000000000
0,609000000000000
0,625000000000000
0,617000000000000
0,633000000000000
0,625000000000000
0,633000000000000
0,641000000000000
0,633000000000000
0,633000000000000
0,625000000000000
0,641000000000000
0,625000000000000
0,641000000000000
0,625000000000000
0,633000000000000
0,633000000000000
0,633000000000000
0,641000000000000
0,641000000000000
0,633000000000000
0,633000000000000
0,617000000000000
0,617000000000000
0,617000000000000
0,609000000000000
0,617000000000000
0,602000000000000
0,602000000000000
0,602000000000000
0,594000000000000
0,586000000000000
0,586000000000000
0,578000000000000
0,570000000000000
0,594000000000000
0,609000000000000
0,625000000000000
0,625000000000000
0,648000000000000
0,625000000000000
0,633000000000000
0,617000000000000
0,633000000000000
0,625000000000000
0,625000000000000
0,641000000000000
0,648000000000000
0,641000000000000
0,633000000000000
0,641000000000000
0,602000000000000
0,617000000000000
0,602000000000000
0,609000000000000
0,602000000000000
0,609000000000000
0,594000000000000
0,641000000000000
0,664000000000000
0,656000000000000
0,656000000000000
0,664000000000000
0,672000000000000
0,688000000000000
0,672000000000000
0,656000000000000
0,641000000000000
0,648000000000000
0,648000000000000
0,656000000000000
0,648000000000000
0,648000000000000
0,656000000000000
0,648000000000000
0,641000000000000
0,625000000000000
0,641000000000000
0,617000000000000
0,617000000000000
0,617000000000000
0,633000000000000
0,625000000000000
0,625000000000000
0,633000000000000
0,609000000000000
0,625000000000000
0,617000000000000
0,617000000000000
0,602000000000000
0,609000000000000
0,625000000000000
0,609000000000000
0,609000000000000
0,617000000000000
0,625000000000000
0,625000000000000
0,625000000000000
0,602000000000000
0,617000000000000
0,594000000000000
0,602000000000000
0,617000000000000
0,617000000000000
0,609000000000000
0,594000000000000
0,609000000000000
0,594000000000000
0,602000000000000
0,602000000000000
0,594000000000000
0,594000000000000
0,609000000000000
0,609000000000000
0,625000000000000
0,633000000000000
0,625000000000000
0,633000000000000
0,641000000000000
0,648000000000000
0,633000000000000
0,648000000000000
0,625000000000000
0,641000000000000
0,625000000000000
0,633000000000000
0,625000000000000
0,641000000000000
0,625000000000000
0,641000000000000
0,633000000000000
0,617000000000000
0,609000000000000
0,602000000000000
0,594000000000000
0,602000000000000
0,609000000000000
0,609000000000000
0,617000000000000
0,617000000000000
0,617000000000000
0,633000000000000
0,633000000000000
0,641000000000000
0,648000000000000
0,648000000000000
0,648000000000000
0,641000000000000
0,641000000000000
0,656000000000000
0,633000000000000
0,641000000000000
0,625000000000000
0,633000000000000
0,625000000000000
0,633000000000000
0,633000000000000
0,656000000000000
0,641000000000000
0,656000000000000
0,641000000000000
0,648000000000000
0,641000000000000
0,648000000000000
0,633000000000000
0,625000000000000
0,625000000000000
0,609000000000000
0,617000000000000
0,625000000000000
0,641000000000000
0,633000000000000
0,664000000000000
0,641000000000000
0,648000000000000
0,648000000000000
0,648000000000000
0,625000000000000
0,617000000000000
0,633000000000000
0,641000000000000
0,641000000000000
0,633000000000000
0,641000000000000
0,625000000000000
0,641000000000000
0,648000000000000
0,664000000000000
0,641000000000000
0,656000000000000
0,648000000000000
0,648000000000000
0,641000000000000
0,633000000000000
0,609000000000000
0,625000000000000
0,625000000000000
0,617000000000000
0,625000000000000
0,641000000000000
0,633000000000000
0,625000000000000
0,633000000000000
0,617000000000000
0,633000000000000
0,609000000000000
0,641000000000000
0,602000000000000
0,617000000000000
0,602000000000000
0,609000000000000
0,617000000000000
0,633000000000000
0,648000000000000
0,641000000000000
0,648000000000000
0,633000000000000
0,641000000000000
0,656000000000000
0,656000000000000
0,648000000000000
0,680000000000000
0,664000000000000
0,680000000000000
0,672000000000000
0,672000000000000
0,648000000000000
0,672000000000000
0,656000000000000
0,656000000000000
0,648000000000000
0,648000000000000
0,633000000000000
0,633000000000000
0,617000000000000
0,617000000000000
0,641000000000000
0,641000000000000
0,641000000000000
0,656000000000000
0,641000000000000
0,648000000000000
0,641000000000000
0,625000000000000
0,633000000000000
0,641000000000000
0,656000000000000
0,648000000000000
0,656000000000000
0,641000000000000
0,656000000000000
0,648000000000000
0,656000000000000
0,656000000000000
0,672000000000000
0,664000000000000
0,664000000000000
0,656000000000000
0,656000000000000
0,664000000000000
0,680000000000000
0,672000000000000
0,672000000000000
0,672000000000000
0,680000000000000
0,664000000000000
0,672000000000000
0,695000000000000
0,695000000000000
0,695000000000000
0,703000000000000
0,688000000000000
0,688000000000000
0,672000000000000
0,680000000000000
0,672000000000000
0,664000000000000
0,648000000000000
0,672000000000000
0,656000000000000
0,672000000000000
0,656000000000000
0,672000000000000
0,656000000000000
0,641000000000000
0,633000000000000
0,625000000000000
0,625000000000000
0,617000000000000
0,617000000000000
0,633000000000000
0,641000000000000
0,633000000000000
0,633000000000000
0,633000000000000
0,641000000000000
0,641000000000000
0,656000000000000
0,656000000000000
0,656000000000000
0,656000000000000
0,672000000000000
0,664000000000000
0,656000000000000
0,672000000000000
0,656000000000000
0,672000000000000
0,664000000000000
0,672000000000000
0,680000000000000
0,680000000000000
0,703000000000000
0,695000000000000
0,703000000000000
0,695000000000000
0,703000000000000
0,695000000000000
0,695000000000000
0,680000000000000
0,703000000000000
0,664000000000000
0,680000000000000
0,656000000000000
0,680000000000000
0,672000000000000
0,695000000000000
0,664000000000000
0,672000000000000
0,664000000000000
0,672000000000000
0,656000000000000
0,672000000000000
0,688000000000000
0,695000000000000
0,664000000000000
0,680000000000000
0,688000000000000
0,688000000000000
0,680000000000000
0,680000000000000
0,656000000000000
0,680000000000000
0,664000000000000
0,680000000000000
0,672000000000000
0,703000000000000
0,672000000000000
0,680000000000000
0,672000000000000
0,680000000000000
0,664000000000000
0,672000000000000
0,664000000000000
0,656000000000000
0,656000000000000
0,672000000000000
0,656000000000000
0,664000000000000
0,648000000000000
0,656000000000000
0,656000000000000
0,656000000000000
0,656000000000000
0,664000000000000
0,664000000000000
0,664000000000000
0,680000000000000
0,680000000000000
0,664000000000000
0,680000000000000
0,672000000000000
0,672000000000000
0,672000000000000
0,672000000000000
0,672000000000000
0,680000000000000
0,680000000000000
0,672000000000000
0,664000000000000
0,664000000000000
0,664000000000000
0,664000000000000
0,656000000000000
0,664000000000000
0,672000000000000
0,672000000000000
0,680000000000000
0,672000000000000
0,680000000000000
0,688000000000000
0,688000000000000
0,688000000000000
0,688000000000000
0,695000000000000
0,680000000000000
0,664000000000000
0,664000000000000
0,656000000000000
0,656000000000000
0,648000000000000
0,656000000000000
0,648000000000000
0,656000000000000
0,664000000000000
0,664000000000000
0,656000000000000
0,664000000000000
0,664000000000000
0,680000000000000
0,672000000000000
0,672000000000000
0,656000000000000
0,688000000000000
0,656000000000000
0,664000000000000
0,562000000000000
0,766000000000000
0,656000000000000
0,648000000000000
0,656000000000000
0,664000000000000
0,656000000000000
0,680000000000000
0,656000000000000
0,680000000000000
0,664000000000000
0,688000000000000
0,664000000000000
0,672000000000000
0,672000000000000
0,680000000000000
0,664000000000000
0,672000000000000
0,688000000000000
0,688000000000000
0,688000000000000
0,695000000000000
0,672000000000000
0,688000000000000
0,680000000000000
0,680000000000000
0,672000000000000
0,703000000000000
0,664000000000000
0,688000000000000
0,680000000000000
0,688000000000000
0,688000000000000
0,695000000000000
0,680000000000000
0,688000000000000
0,672000000000000
0,688000000000000
0,688000000000000
0,680000000000000
0,664000000000000
0,680000000000000
0,672000000000000
0,680000000000000
0,672000000000000
0,680000000000000
0,672000000000000
0,680000000000000
0,680000000000000
0,672000000000000
0,664000000000000
0,688000000000000
0,672000000000000
0,680000000000000
0,672000000000000
0,680000000000000
0,664000000000000
0,680000000000000
0,680000000000000
0,672000000000000
0,672000000000000
0,680000000000000
0,672000000000000
0,672000000000000
0,656000000000000
0,664000000000000
0,656000000000000
0,672000000000000
0,672000000000000
0,656000000000000
0,664000000000000
0,672000000000000
0,656000000000000
0,656000000000000
0,656000000000000
0,672000000000000
0,656000000000000
0,680000000000000
0,656000000000000
0,672000000000000
0,672000000000000
0,680000000000000
0,664000000000000
0,672000000000000
0,672000000000000
0,688000000000000
0,672000000000000
0,695000000000000
0,688000000000000
0,688000000000000
0,680000000000000
0,688000000000000
0,680000000000000
0,688000000000000
0,672000000000000
0,688000000000000
0,680000000000000
0,680000000000000
0,680000000000000
0,695000000000000
0,664000000000000
0,695000000000000
0,656000000000000
0,672000000000000
0,672000000000000
0,664000000000000
0,664000000000000
0,672000000000000
0,656000000000000
0,680000000000000
0,656000000000000
0,680000000000000
0,672000000000000
0,680000000000000
0,672000000000000
0,672000000000000
0,680000000000000
0,680000000000000
0,672000000000000
0,680000000000000
0,672000000000000
0,688000000000000
0,688000000000000
0,695000000000000
0,688000000000000
0,703000000000000
0,680000000000000
0,688000000000000
0,695000000000000
0,703000000000000
0,688000000000000
0,695000000000000
0,688000000000000
0,695000000000000
0,672000000000000
0,672000000000000
0,688000000000000
0,672000000000000
0,688000000000000
0,680000000000000
0,680000000000000
0,695000000000000
0,688000000000000
0,672000000000000
0,688000000000000
0,680000000000000
0,695000000000000
0,680000000000000
0,688000000000000
0,680000000000000
0,680000000000000
0,688000000000000
0,672000000000000
0,664000000000000
0,656000000000000
0,648000000000000
0,648000000000000
0,648000000000000
0,625000000000000
0,633000000000000
0,641000000000000
0,641000000000000
0,641000000000000
0,648000000000000
0,633000000000000
0,656000000000000
0,648000000000000
0,664000000000000
0,656000000000000
0,664000000000000
0,680000000000000
0,680000000000000
0,664000000000000
0,680000000000000
0,680000000000000
0,688000000000000
0,664000000000000
0,688000000000000
0,672000000000000
0,688000000000000
0,680000000000000
0,688000000000000
0,688000000000000
0,680000000000000
0,688000000000000
0,680000000000000
0,695000000000000
0,688000000000000
0,672000000000000
0,688000000000000
0,680000000000000
0,680000000000000
0,695000000000000
0,695000000000000
0,680000000000000
0,688000000000000
0,672000000000000
0,672000000000000
0,656000000000000
0,648000000000000
0,633000000000000
0,656000000000000
0,633000000000000
0,664000000000000
0,656000000000000
0,672000000000000
0,664000000000000
0,680000000000000
0,656000000000000
0,664000000000000
0,648000000000000
0,664000000000000
0,664000000000000
0,664000000000000
0,648000000000000
0,672000000000000
0,656000000000000
0,664000000000000
0,672000000000000
0,680000000000000
0,672000000000000
0,672000000000000
0,680000000000000
0,680000000000000
0,672000000000000
0,672000000000000
0,672000000000000
0,680000000000000
0,664000000000000
0,688000000000000
0,680000000000000
0,695000000000000
0,672000000000000
0,680000000000000
0,664000000000000
0,688000000000000
0,680000000000000
0,688000000000000
0,672000000000000
0,695000000000000
0,680000000000000
0,703000000000000
0,680000000000000
0,703000000000000
0,680000000000000
0,680000000000000
0,664000000000000
0,672000000000000
0,672000000000000
0,672000000000000
0,680000000000000
0,680000000000000
0,688000000000000
0,680000000000000
0,695000000000000
0,703000000000000
0,695000000000000
0,695000000000000
0,703000000000000
0,719000000000000
0,695000000000000
0,695000000000000
0,680000000000000
0,688000000000000
0,695000000000000
0,695000000000000
0,680000000000000
0,711000000000000
0,688000000000000
0,695000000000000
0,688000000000000
0,695000000000000
0,695000000000000
0,695000000000000
0,688000000000000
0,672000000000000
0,680000000000000
0,688000000000000
0,680000000000000
0,688000000000000
0,688000000000000
0,680000000000000
0,680000000000000
0,680000000000000
0,680000000000000
0,688000000000000
0,680000000000000
0,719000000000000
0,695000000000000
0,688000000000000
0,688000000000000
0,672000000000000
0,695000000000000
0,703000000000000
0,688000000000000
0,688000000000000
0,703000000000000
0,680000000000000
0,695000000000000
0,688000000000000
0,719000000000000
0,695000000000000
0,711000000000000
0,695000000000000
0,727000000000000
0,719000000000000
0,703000000000000
0,703000000000000
0,727000000000000
0,703000000000000
0,703000000000000
0,703000000000000
0,719000000000000
0,719000000000000
0,695000000000000
0,695000000000000
0,695000000000000
0,695000000000000
0,703000000000000
0,711000000000000
0,703000000000000
0,727000000000000
0,727000000000000
0,711000000000000
0,695000000000000
0,711000000000000
0,750000000000000
0,727000000000000
0,719000000000000
0,711000000000000
0,703000000000000
0,695000000000000
0,695000000000000
0,680000000000000
0,695000000000000
0,672000000000000
0,695000000000000
0,680000000000000
0,688000000000000
0,680000000000000
0,695000000000000
0,680000000000000
0,695000000000000
0,695000000000000
0,695000000000000
0,680000000000000
0,688000000000000
0,680000000000000
0,688000000000000
0,695000000000000
0,695000000000000
0,688000000000000
0,688000000000000
0,672000000000000
0,672000000000000
0,672000000000000
0,680000000000000
0,664000000000000
0,656000000000000
0,656000000000000
0,664000000000000
0,648000000000000
0,672000000000000
0,648000000000000
0,680000000000000
0,648000000000000
0,672000000000000
0,656000000000000
0,672000000000000
0,648000000000000
0,656000000000000
0,648000000000000
0,672000000000000
0,656000000000000
0,664000000000000
0,672000000000000
0,680000000000000
0,672000000000000
0,688000000000000
0,672000000000000
0,688000000000000
0,672000000000000
0,680000000000000
0,688000000000000
0,680000000000000
0,680000000000000
0,688000000000000
0,672000000000000
0,695000000000000
0,672000000000000
0,664000000000000
0,672000000000000
0,664000000000000
0,664000000000000
0,664000000000000
0,656000000000000
0,656000000000000
0,648000000000000
0,656000000000000
0,648000000000000
0,641000000000000
0,648000000000000
0,656000000000000
0,641000000000000
0,641000000000000
0,664000000000000
0,648000000000000
0,656000000000000
0,648000000000000
0,672000000000000
0,656000000000000
0,672000000000000
0,633000000000000
0,648000000000000
0,633000000000000
0,656000000000000
0,648000000000000
0,641000000000000
0,648000000000000
0,664000000000000
0,656000000000000
0,672000000000000
0,664000000000000
0,672000000000000
0,648000000000000
0,664000000000000
0,648000000000000
0,664000000000000
0,648000000000000
0,648000000000000
0,656000000000000
0,641000000000000
0,664000000000000
0,664000000000000
0,656000000000000
0,664000000000000
0,664000000000000
0,664000000000000
0,664000000000000
0,680000000000000
0,680000000000000
0,664000000000000
0,664000000000000
0,664000000000000
0,680000000000000
0,648000000000000
0,656000000000000
0,664000000000000
0,695000000000000
0,680000000000000
0,680000000000000
0,680000000000000
0,688000000000000
0,672000000000000
0,680000000000000
0,688000000000000
0,695000000000000
0,688000000000000
0,688000000000000
0,688000000000000
0,688000000000000
0,680000000000000
0,664000000000000
0,672000000000000
0,672000000000000
0,664000000000000
0,656000000000000
0,656000000000000
0,664000000000000
0,633000000000000
0,641000000000000
0,648000000000000
0,648000000000000
0,656000000000000
0,680000000000000
0,664000000000000
0,672000000000000
0,664000000000000
0,688000000000000
0,672000000000000
0,680000000000000
0,664000000000000
0,664000000000000
0,664000000000000
0,664000000000000
0,648000000000000
0,664000000000000
0,664000000000000
0,680000000000000
0,656000000000000
0,680000000000000
0,656000000000000
0,664000000000000
0,648000000000000
0,672000000000000
0,656000000000000
0,680000000000000
0,656000000000000
0,680000000000000
0,680000000000000
0,680000000000000
0,695000000000000
0,711000000000000
0,695000000000000
0,695000000000000
0,688000000000000
0,703000000000000
0,695000000000000
0,688000000000000
0,680000000000000
0,688000000000000
0,672000000000000
0,695000000000000
0,680000000000000
0,695000000000000
0,688000000000000
0,688000000000000
0,680000000000000
0,688000000000000
0,672000000000000
0,680000000000000
0,664000000000000
0,680000000000000
0,672000000000000
0,688000000000000
0,680000000000000
0,703000000000000
0,688000000000000
0,703000000000000
0,688000000000000
0,695000000000000
0,688000000000000
0,688000000000000
0,680000000000000
0,672000000000000
0,664000000000000
0,672000000000000
0,664000000000000
0,656000000000000
0,672000000000000
0,664000000000000
0,664000000000000
0,664000000000000
0,664000000000000
0,672000000000000
0,656000000000000
0,672000000000000
0,680000000000000
0,688000000000000
0,680000000000000
0,688000000000000
0,695000000000000
0,695000000000000
0,703000000000000
0,695000000000000
0,695000000000000
0,695000000000000
0,703000000000000
0,695000000000000
0,703000000000000
0,688000000000000
0,695000000000000
0,688000000000000
0,688000000000000
0,672000000000000
0,680000000000000
0,680000000000000
0,680000000000000
0,680000000000000
0,695000000000000
0,688000000000000
0,711000000000000
0,695000000000000
0,727000000000000
0,711000000000000
0,711000000000000
0,703000000000000
0,711000000000000
0,703000000000000
0,727000000000000
0,719000000000000
0,719000000000000
0,719000000000000
0,711000000000000
0,719000000000000
0,703000000000000
0,703000000000000
0,703000000000000
0,703000000000000
0,688000000000000
0,711000000000000
0,695000000000000
0,711000000000000
0,695000000000000
0,711000000000000
0,695000000000000
0,711000000000000
0,695000000000000
0,703000000000000
0,695000000000000
0,688000000000000
0,672000000000000
0,695000000000000
0,680000000000000
0,703000000000000
0,695000000000000
0,695000000000000
0,711000000000000
0,719000000000000
0,703000000000000
0,703000000000000
0,703000000000000
0,695000000000000
0,695000000000000
0,688000000000000
0,703000000000000
0,688000000000000
0,695000000000000
0,688000000000000
0,688000000000000
0,656000000000000
0,664000000000000
0,648000000000000
0,672000000000000
0,656000000000000
0,680000000000000
0,680000000000000
0,695000000000000
0,688000000000000
0,688000000000000
0,680000000000000
0,703000000000000
0,695000000000000
0,695000000000000
0,688000000000000
0,703000000000000
0,688000000000000
0,703000000000000
0,680000000000000
0,703000000000000
0,680000000000000
0,688000000000000
0,672000000000000
0,672000000000000
0,672000000000000
0,688000000000000
0,664000000000000
0,672000000000000
0,672000000000000
0,680000000000000
0,664000000000000
0,680000000000000
0,656000000000000
0,664000000000000
0,656000000000000
0,672000000000000
0,656000000000000
0,672000000000000
0,664000000000000
0,680000000000000
0,664000000000000
0,664000000000000
0,656000000000000
0,672000000000000
0,664000000000000
0,672000000000000
0,656000000000000
0,672000000000000
0,664000000000000
0,664000000000000
0,680000000000000
0,680000000000000
0,680000000000000
0,695000000000000
0,680000000000000
0,695000000000000
0,656000000000000
0,656000000000000
0,633000000000000
0,633000000000000
0,633000000000000
0,641000000000000
0,641000000000000
0,648000000000000
0,648000000000000
0,664000000000000
0,680000000000000
0,664000000000000
0,664000000000000
0,680000000000000
0,672000000000000
0,672000000000000
0,672000000000000
0,672000000000000
0,672000000000000
0,641000000000000
0,664000000000000
0,664000000000000
0,688000000000000
0,688000000000000
0,695000000000000
0,703000000000000
0,703000000000000
0,703000000000000
0,688000000000000
0,688000000000000
0,688000000000000
0,680000000000000
0,664000000000000
0,672000000000000
0,672000000000000
0,672000000000000
0,672000000000000
0,672000000000000
0,688000000000000
0,672000000000000
0,672000000000000
0,680000000000000
0,672000000000000
0,680000000000000
0,672000000000000
0,664000000000000
0,680000000000000
0,664000000000000
0,672000000000000
0,672000000000000
0,672000000000000
0,672000000000000
0,648000000000000
0,656000000000000
0,664000000000000
0,641000000000000
0,641000000000000
0,641000000000000
0,633000000000000
0,625000000000000
0,625000000000000
0,609000000000000
0,609000000000000
0,617000000000000
0,648000000000000
0,633000000000000
0,641000000000000
0,641000000000000
0,648000000000000
0,648000000000000
0,648000000000000
0,641000000000000
0,648000000000000
0,656000000000000
0,688000000000000
0,680000000000000
0,688000000000000
0,680000000000000
0,688000000000000
0,688000000000000
0,680000000000000
0,688000000000000
0,688000000000000
0,664000000000000
0,664000000000000
0,672000000000000
0,672000000000000
0,680000000000000
0,672000000000000
0,672000000000000
0,672000000000000
0,688000000000000
0,672000000000000
0,680000000000000
0,680000000000000
0,680000000000000
0,680000000000000
0,672000000000000
0,688000000000000
0,695000000000000
0,695000000000000
0,688000000000000
0,688000000000000
0,695000000000000
0,703000000000000
0,688000000000000
0,695000000000000
0,695000000000000
0,703000000000000
0,695000000000000
0,703000000000000
0,703000000000000
0,703000000000000
0,688000000000000
0,688000000000000
0,672000000000000
0,688000000000000
0,680000000000000
0,703000000000000
0,672000000000000
0,688000000000000
0,672000000000000
0,688000000000000
0,648000000000000
0,656000000000000
0,648000000000000
0,656000000000000
0,641000000000000
0,664000000000000
0,633000000000000
0,656000000000000
0,648000000000000
0,648000000000000
0,648000000000000
0,656000000000000
0,672000000000000
0,680000000000000
0,688000000000000
0,695000000000000
0,688000000000000
0,688000000000000
0,672000000000000
0,672000000000000
0,648000000000000
0,656000000000000
0,648000000000000
0,648000000000000
0,656000000000000
0,656000000000000
0,656000000000000
0,648000000000000
0,648000000000000
0,641000000000000
0,648000000000000
0,648000000000000
0,664000000000000
0,656000000000000
0,656000000000000
0,664000000000000
0,680000000000000
0,656000000000000
0,688000000000000
0,672000000000000
0,672000000000000
0,688000000000000
0,680000000000000
0,672000000000000
0,664000000000000
0,656000000000000
0,672000000000000
0,656000000000000
0,672000000000000
0,648000000000000
0,672000000000000
0,656000000000000
0,656000000000000
0,648000000000000
0,672000000000000
0,664000000000000
0,656000000000000
0,672000000000000
0,664000000000000
0,656000000000000
0,664000000000000
0,656000000000000
0,664000000000000
0,648000000000000
0,641000000000000
0,641000000000000
0,641000000000000
0,641000000000000
0,633000000000000
0,641000000000000
0,641000000000000
0,664000000000000
0,664000000000000
0,656000000000000
0,664000000000000
0,664000000000000
0,656000000000000
0,648000000000000
0,648000000000000
0,656000000000000
0,648000000000000
0,672000000000000
0,648000000000000
0,656000000000000
0,641000000000000
0,664000000000000
0,648000000000000
0,672000000000000
0,648000000000000
0,672000000000000
0,656000000000000
0,664000000000000
0,656000000000000
0,664000000000000
0,664000000000000
0,688000000000000
0,672000000000000
0,688000000000000
0,672000000000000
0,688000000000000
0,672000000000000
0,680000000000000
0,672000000000000
0,688000000000000
0,695000000000000
0,688000000000000
0,672000000000000
0,695000000000000
0,695000000000000
0,711000000000000
0,688000000000000
0,688000000000000
0,680000000000000
0,688000000000000
0,688000000000000
0,703000000000000
0,703000000000000
0,703000000000000
0,672000000000000
0,680000000000000
0,672000000000000
0,672000000000000
0,680000000000000
0,680000000000000
0,680000000000000
0,688000000000000
0,672000000000000
0,672000000000000
0,664000000000000
0,672000000000000
0,648000000000000
0,656000000000000
0,656000000000000
0,648000000000000
0,656000000000000
0,656000000000000
0,648000000000000
0,656000000000000
0,641000000000000
0,648000000000000
0,641000000000000
0,641000000000000
0,625000000000000
0,641000000000000
0,625000000000000
0,648000000000000
0,641000000000000
0,656000000000000
0,664000000000000
0,664000000000000
0,648000000000000
0,688000000000000
0,672000000000000
0,680000000000000
0,688000000000000
0,680000000000000
0,680000000000000
0,688000000000000
0,688000000000000
0,680000000000000
0,680000000000000
0,672000000000000
0,688000000000000
0,688000000000000
0,664000000000000
0,680000000000000
0,672000000000000
0,672000000000000
0,664000000000000
0,672000000000000
0,672000000000000
0,672000000000000
0,672000000000000
0,664000000000000
0,672000000000000
0,672000000000000
0,680000000000000
0,672000000000000
0,656000000000000
0,711000000000000
0,727000000000000
0,727000000000000
0,695000000000000
0,695000000000000
0,680000000000000
0,672000000000000
0,672000000000000
0,672000000000000
0,672000000000000
0,672000000000000
0,664000000000000
0,664000000000000
0,664000000000000
0,672000000000000
0,672000000000000
0,672000000000000
0,648000000000000
0,672000000000000
0,664000000000000
0,680000000000000
0,672000000000000
0,664000000000000
0,680000000000000
0,680000000000000
0,656000000000000
0,656000000000000
0,648000000000000
0,648000000000000
0,648000000000000
0,648000000000000
0,641000000000000
0,648000000000000
0,648000000000000
0,664000000000000
0,664000000000000
0,656000000000000
0,664000000000000
0,664000000000000
0,664000000000000
0,648000000000000
0,656000000000000
0,656000000000000
0,672000000000000
0,664000000000000
0,664000000000000
0,672000000000000
0,664000000000000
0,664000000000000
0,672000000000000
0,672000000000000
0,695000000000000
0,680000000000000
0,695000000000000
0,688000000000000
0,711000000000000
0,688000000000000
0,703000000000000
0,695000000000000
0,688000000000000
0,664000000000000
0,672000000000000
0,664000000000000
0,672000000000000
0,656000000000000
0,680000000000000
0,672000000000000
0,672000000000000
0,648000000000000
0,656000000000000
0,641000000000000
0,656000000000000
0,641000000000000
0,672000000000000
0,648000000000000
0,672000000000000
0,672000000000000
0,695000000000000
0,680000000000000
0,688000000000000
0,680000000000000
0,695000000000000
0,688000000000000
0,695000000000000
0,664000000000000
0,680000000000000
0,664000000000000
0,672000000000000
0,672000000000000
0,672000000000000
0,664000000000000
0,672000000000000
0,672000000000000
0,688000000000000
0,656000000000000
0,680000000000000
0,680000000000000
0,680000000000000
0,672000000000000
0,688000000000000
0,680000000000000
0,688000000000000
0,680000000000000
0,688000000000000
0,664000000000000
0,688000000000000
0,672000000000000
0,664000000000000
0,672000000000000
0,664000000000000
0,656000000000000
0,664000000000000
0,641000000000000
0,664000000000000
0,656000000000000
0,648000000000000
0,648000000000000
0,664000000000000
0,648000000000000
0,664000000000000
0,664000000000000
0,672000000000000
0,672000000000000
0,680000000000000
0,672000000000000
0,672000000000000
0,680000000000000
0,672000000000000
0,664000000000000
0,664000000000000
0,648000000000000
0,664000000000000
0,664000000000000
0,672000000000000
0,656000000000000
0,656000000000000
0,680000000000000
0,656000000000000
0,664000000000000
0,664000000000000
0,664000000000000
0,664000000000000
0,664000000000000
0,680000000000000
0,680000000000000
0,672000000000000
0,672000000000000
0,680000000000000
0,680000000000000
0,672000000000000
0,672000000000000
0,688000000000000
0,688000000000000
0,688000000000000
0,688000000000000
0,695000000000000
0,680000000000000
0,672000000000000
0,688000000000000
0,672000000000000
0,680000000000000
0,688000000000000
0,695000000000000
0,703000000000000
0,695000000000000
0,703000000000000
0,680000000000000
0,695000000000000
0,664000000000000
0,664000000000000
0,664000000000000
0,656000000000000
0,672000000000000
0,688000000000000
0,680000000000000
0,680000000000000
0,664000000000000
0,664000000000000
0,656000000000000
0,656000000000000
0,648000000000000
0,656000000000000
0,656000000000000
0,664000000000000
0,664000000000000
0,664000000000000
0,672000000000000
0,688000000000000
0,688000000000000
0,695000000000000
0,703000000000000
0,703000000000000
0,695000000000000
0,703000000000000
0,688000000000000
0,695000000000000
0,688000000000000
0,680000000000000
0,695000000000000
0,688000000000000
0,688000000000000
0,703000000000000
0,672000000000000
0,680000000000000
0,688000000000000
0,688000000000000
0,688000000000000
0,695000000000000
0,688000000000000
0,711000000000000
0,695000000000000
0,711000000000000
0,672000000000000
0,695000000000000
0,680000000000000
0,680000000000000
0,680000000000000
0,703000000000000
0,680000000000000
0,688000000000000
0,688000000000000
0,695000000000000
0,703000000000000
0,703000000000000
0,703000000000000
0,695000000000000
0,711000000000000
0,695000000000000
0,703000000000000
0,695000000000000
0,688000000000000
0,680000000000000
0,680000000000000
0,664000000000000
0,688000000000000
0,680000000000000
0,695000000000000
0,680000000000000
0,680000000000000
0,688000000000000
0,680000000000000
0,680000000000000
0,688000000000000
0,695000000000000
0,703000000000000
0,680000000000000
0,703000000000000
0,664000000000000
0,695000000000000
0,680000000000000
0,688000000000000
0,656000000000000
0,664000000000000
0,648000000000000
0,664000000000000
0,648000000000000
0,664000000000000
0,672000000000000
0,672000000000000
0,672000000000000
0,672000000000000
0,664000000000000
0,664000000000000
0,656000000000000
0,680000000000000
0,664000000000000
0,664000000000000
0,656000000000000
0,672000000000000
0,672000000000000
0,672000000000000
0,664000000000000
0,672000000000000
0,656000000000000
0,656000000000000
0,656000000000000
0,656000000000000
0,648000000000000
0,656000000000000
0,664000000000000
0,680000000000000
0,695000000000000
0,695000000000000
0,695000000000000
0,688000000000000
0,680000000000000
0,688000000000000
0,688000000000000
0,672000000000000
0,680000000000000
0,695000000000000
0,688000000000000
0,695000000000000
0,688000000000000
0,688000000000000
0,680000000000000
0,680000000000000
0,672000000000000
0,672000000000000
0,656000000000000
0,664000000000000
0,656000000000000
0,664000000000000
0,656000000000000
0,648000000000000
0,656000000000000
0,664000000000000
0,656000000000000
0,648000000000000
0,648000000000000
0,664000000000000
0,648000000000000
0,656000000000000
0,664000000000000
0,656000000000000
0,664000000000000
0,656000000000000
0,664000000000000
0,672000000000000
0,688000000000000
0,680000000000000
0,688000000000000
0,672000000000000
0,688000000000000
0,688000000000000
0,688000000000000
0,688000000000000
0,688000000000000
0,664000000000000
0,664000000000000
0,664000000000000
0,680000000000000
0,664000000000000
0,680000000000000
0,688000000000000
0,680000000000000
0,664000000000000
0,648000000000000
0,633000000000000
0,648000000000000
0,617000000000000
0,641000000000000
0,641000000000000
0,664000000000000
0,656000000000000
0,664000000000000
0,664000000000000
0,672000000000000
0,664000000000000
0,664000000000000
0,672000000000000
0,688000000000000
0,664000000000000
0,672000000000000
0,648000000000000
0,664000000000000
0,664000000000000
0,672000000000000
0,656000000000000
0,672000000000000
0,656000000000000
0,664000000000000
0,648000000000000
0,664000000000000
0,656000000000000
0,664000000000000
0,664000000000000
0,664000000000000
0,664000000000000
0,680000000000000
0,648000000000000
0,656000000000000
0,664000000000000
0,656000000000000
0,648000000000000
0,648000000000000
0,648000000000000
0,641000000000000
0,656000000000000
0,664000000000000
0,656000000000000
0,664000000000000
0,656000000000000
0,672000000000000
0,664000000000000
0,656000000000000
0,664000000000000
0,656000000000000
0,672000000000000
0,656000000000000
0,688000000000000
0,680000000000000
0,695000000000000
0,688000000000000
0,703000000000000
0,680000000000000
0,695000000000000
0,672000000000000
0,672000000000000
0,680000000000000
0,695000000000000
0,688000000000000
0,688000000000000
0,695000000000000
0,672000000000000
0,664000000000000
0,656000000000000
0,648000000000000
0,664000000000000
0,641000000000000
0,688000000000000
0,664000000000000
0,688000000000000
0,672000000000000
0,672000000000000
0,680000000000000
0,680000000000000
0,680000000000000
0,703000000000000
0,695000000000000
0,688000000000000
0,672000000000000
0,672000000000000
0,680000000000000
0,680000000000000
0,688000000000000
0,695000000000000
0,703000000000000
0,703000000000000
0,680000000000000
0,672000000000000
0,672000000000000
0,664000000000000
0,672000000000000
0,664000000000000
0,672000000000000
0,664000000000000
0,672000000000000
0,664000000000000
0,664000000000000
0,656000000000000
0,656000000000000
0,672000000000000
0,664000000000000
0,672000000000000
0,633000000000000
0,641000000000000
0,617000000000000
0,625000000000000
0,641000000000000
0,664000000000000
0,656000000000000
0,656000000000000
0,656000000000000
0,672000000000000
0,656000000000000
0,672000000000000
0,664000000000000
0,664000000000000
0,648000000000000
0,656000000000000
0,648000000000000
0,664000000000000
0,656000000000000
0,695000000000000
0,695000000000000
0,719000000000000
0,688000000000000
0,734000000000000
0,688000000000000
0,688000000000000
0,656000000000000
0,648000000000000
0,625000000000000
0,625000000000000
0,633000000000000
0,648000000000000
0,641000000000000
0,648000000000000
0,641000000000000
0,664000000000000
0,664000000000000
0,664000000000000
0,664000000000000
0,680000000000000
0,664000000000000
0,672000000000000
0,672000000000000
0,672000000000000
0,680000000000000
0,672000000000000
0,680000000000000
0,680000000000000
0,688000000000000
0,688000000000000
0,688000000000000
0,688000000000000
0,695000000000000
0,688000000000000
0,703000000000000
0,711000000000000
0,703000000000000
0,711000000000000
0,695000000000000
0,703000000000000
0,703000000000000
0,719000000000000
0,703000000000000
0,719000000000000
0,703000000000000
0,703000000000000
0,695000000000000
0,695000000000000
0,688000000000000
0,711000000000000
0,688000000000000
0,695000000000000
0,664000000000000
0,672000000000000
0,695000000000000
0,703000000000000
0,688000000000000
0,688000000000000
0,680000000000000
0,680000000000000
0,664000000000000
0,672000000000000
0,680000000000000
0,672000000000000
0,680000000000000
0,680000000000000
0,688000000000000
0,703000000000000
0,680000000000000
0,695000000000000
0,688000000000000
0,703000000000000
0,703000000000000
0,688000000000000
0,703000000000000
0,695000000000000
0,695000000000000
0,680000000000000
0,680000000000000
0,695000000000000
0,680000000000000
0,703000000000000
0,719000000000000
0,703000000000000
0,711000000000000
0,688000000000000
0,703000000000000
0,695000000000000
0,719000000000000
0,695000000000000
0,695000000000000
0,688000000000000
0,688000000000000
0,703000000000000
0,711000000000000
0,695000000000000
0,688000000000000
0,703000000000000
0,695000000000000
0,695000000000000
0,703000000000000
0,688000000000000
0,703000000000000
0,695000000000000
0,680000000000000
0,688000000000000
0,688000000000000
0,680000000000000
0,672000000000000
0,688000000000000
0,680000000000000
0,703000000000000
0,688000000000000
0,703000000000000
0,695000000000000
0,695000000000000
0,680000000000000
0,695000000000000
0,688000000000000
0,695000000000000
0,680000000000000
0,695000000000000
